E:\Dropbox\software\HIGP\LaB6_P1_C1_D1w_001.tif: 2-theta Scan
2-Theta Angle (Degrees)

       2189
 7.9485420E-03  9.3500008E+01
 2.3845626E-02  9.4337402E+01
 3.9742712E-02  9.5592552E+01
 5.5639796E-02  9.5827965E+01
 7.1536876E-02  9.6890251E+01
 8.7433964E-02  9.9567299E+01
 1.0333104E-01  1.0374823E+02
 1.1922813E-01  1.1479771E+02
 1.3512522E-01  1.4682785E+02
 1.5102230E-01  1.6761111E+02
 1.6691938E-01  1.4454556E+02
 1.8281648E-01  1.1641497E+02
 1.9871356E-01  1.0319478E+02
 2.1461064E-01  9.7780914E+01
 2.3050772E-01  9.5781342E+01
 2.4640481E-01  9.6050262E+01
 2.6230189E-01  9.6147568E+01
 2.7819899E-01  9.4129379E+01
 2.9409605E-01  9.2634445E+01
 3.0999315E-01  9.3660515E+01
 3.2589021E-01  9.5476624E+01
 3.4178731E-01  9.6168922E+01
 3.5768440E-01  9.9225655E+01
 3.7358147E-01  1.0268659E+02
 3.8947856E-01  1.0543303E+02
 4.0537566E-01  1.1104688E+02
 4.2127272E-01  1.1905562E+02
 4.3716982E-01  1.2098112E+02
 4.5306692E-01  1.1646079E+02
 4.6896398E-01  1.1124879E+02
 4.8486108E-01  1.0856763E+02
 5.0075817E-01  1.0572707E+02
 5.1665527E-01  1.0347348E+02
 5.3255230E-01  1.0198971E+02
 5.4844940E-01  1.0160172E+02
 5.6434649E-01  1.0564629E+02
 5.8024359E-01  1.1726835E+02
 5.9614068E-01  1.2546107E+02
 6.1203772E-01  1.1773270E+02
 6.2793481E-01  1.0575296E+02
 6.4383191E-01  1.0273041E+02
 6.5972900E-01  1.0103145E+02
 6.7562610E-01  9.8589653E+01
 6.9152319E-01  9.7733505E+01
 7.0742023E-01  9.8354500E+01
 7.2331733E-01  9.8474770E+01
 7.3921442E-01  9.6882751E+01
 7.5511152E-01  9.5970390E+01
 7.7100861E-01  9.6301643E+01
 7.8690565E-01  9.5693497E+01
 8.0280274E-01  9.4128502E+01
 8.1869984E-01  9.2167732E+01
 8.3459693E-01  9.1022041E+01
 8.5049403E-01  9.0905106E+01
 8.6639112E-01  9.1354156E+01
 8.8228816E-01  9.0755630E+01
 8.9818525E-01  9.0671852E+01
 9.1408235E-01  9.1496292E+01
 9.2997944E-01  9.2770569E+01
 9.4587654E-01  9.3819145E+01
 9.6177357E-01  9.3291374E+01
 9.7767067E-01  9.3414421E+01
 9.9356776E-01  9.3887482E+01
 1.0094649E+00  9.3652641E+01
 1.0253619E+00  9.2233749E+01
 1.0412591E+00  9.1378975E+01
 1.0571561E+00  9.0784836E+01
 1.0730532E+00  9.0435661E+01
 1.0889503E+00  9.0217384E+01
 1.1048473E+00  9.0210060E+01
 1.1207445E+00  9.0211243E+01
 1.1366415E+00  9.0405357E+01
 1.1525387E+00  9.0314598E+01
 1.1684357E+00  9.1128304E+01
 1.1843327E+00  9.1774109E+01
 1.2002299E+00  9.1402718E+01
 1.2161269E+00  9.1067848E+01
 1.2320241E+00  9.1446304E+01
 1.2479211E+00  9.3099586E+01
 1.2638181E+00  9.6992981E+01
 1.2797153E+00  9.9784546E+01
 1.2956123E+00  9.9946854E+01
 1.3115095E+00  9.9841286E+01
 1.3274065E+00  9.9792458E+01
 1.3433037E+00  1.0124210E+02
 1.3592007E+00  1.0184717E+02
 1.3750978E+00  9.9312378E+01
 1.3909949E+00  9.6450516E+01
 1.4068919E+00  9.4913452E+01
 1.4227891E+00  9.3604927E+01
 1.4386861E+00  9.3205338E+01
 1.4545832E+00  9.3372574E+01
 1.4704803E+00  9.3999527E+01
 1.4863774E+00  9.4395683E+01
 1.5022745E+00  9.4105949E+01
 1.5181715E+00  9.3208252E+01
 1.5340686E+00  9.2715118E+01
 1.5499657E+00  9.2160263E+01
 1.5658628E+00  9.2078850E+01
 1.5817599E+00  9.2925232E+01
 1.5976570E+00  9.3948898E+01
 1.6135540E+00  9.4516129E+01
 1.6294512E+00  9.3731972E+01
 1.6453482E+00  9.3237885E+01
 1.6612453E+00  9.3851166E+01
 1.6771424E+00  9.4637230E+01
 1.6930395E+00  9.3623428E+01
 1.7089366E+00  9.2016006E+01
 1.7248336E+00  9.2111229E+01
 1.7407308E+00  9.2294388E+01
 1.7566278E+00  9.2285873E+01
 1.7725250E+00  9.2762192E+01
 1.7884220E+00  9.2684425E+01
 1.8043190E+00  9.2592644E+01
 1.8202162E+00  9.3655640E+01
 1.8361132E+00  9.7295502E+01
 1.8520104E+00  1.0388958E+02
 1.8679074E+00  1.1599603E+02
 1.8838044E+00  1.2815321E+02
 1.8997016E+00  1.2485952E+02
 1.9155986E+00  1.0973013E+02
 1.9314958E+00  1.0309307E+02
 1.9473928E+00  1.0128542E+02
 1.9632899E+00  1.0178447E+02
 1.9791870E+00  1.0398419E+02
 1.9950840E+00  1.0471080E+02
 2.0109811E+00  1.0605766E+02
 2.0268784E+00  1.0750256E+02
 2.0427754E+00  1.0622055E+02
 2.0586724E+00  1.0497511E+02
 2.0745695E+00  1.0399173E+02
 2.0904665E+00  1.0290890E+02
 2.1063638E+00  1.0136315E+02
 2.1222608E+00  1.0071104E+02
 2.1381578E+00  1.0078323E+02
 2.1540549E+00  1.0273585E+02
 2.1699519E+00  1.0589251E+02
 2.1858492E+00  1.0952982E+02
 2.2017462E+00  1.1270221E+02
 2.2176433E+00  1.0702857E+02
 2.2335403E+00  1.0088137E+02
 2.2494373E+00  9.7502251E+01
 2.2653346E+00  9.6449661E+01
 2.2812316E+00  9.6469650E+01
 2.2971287E+00  9.6029366E+01
 2.3130257E+00  9.6207611E+01
 2.3289227E+00  9.6373123E+01
 2.3448200E+00  9.7479225E+01
 2.3607171E+00  9.8937012E+01
 2.3766141E+00  9.9645195E+01
 2.3925111E+00  9.9935158E+01
 2.4084082E+00  1.0029484E+02
 2.4243054E+00  1.0121467E+02
 2.4402025E+00  1.0219509E+02
 2.4560995E+00  1.0412666E+02
 2.4719965E+00  1.0734544E+02
 2.4878936E+00  1.1185672E+02
 2.5037909E+00  1.1665564E+02
 2.5196879E+00  1.1671478E+02
 2.5355849E+00  1.1264774E+02
 2.5514820E+00  1.0864964E+02
 2.5673790E+00  1.0682795E+02
 2.5832763E+00  1.0563390E+02
 2.5991733E+00  1.0469852E+02
 2.6150703E+00  1.0573857E+02
 2.6309674E+00  1.0677881E+02
 2.6468647E+00  1.0660217E+02
 2.6627617E+00  1.0868453E+02
 2.6786587E+00  1.1258974E+02
 2.6945558E+00  1.1045734E+02
 2.7104528E+00  1.0398651E+02
 2.7263501E+00  1.0193189E+02
 2.7422471E+00  1.0202789E+02
 2.7581441E+00  1.0352176E+02
 2.7740412E+00  1.0509335E+02
 2.7899382E+00  1.0689281E+02
 2.8058355E+00  1.1102218E+02
 2.8217325E+00  1.1522559E+02
 2.8376296E+00  1.1322894E+02
 2.8535266E+00  1.0780458E+02
 2.8694236E+00  1.0461183E+02
 2.8853209E+00  1.0289389E+02
 2.9012179E+00  1.0099400E+02
 2.9171150E+00  1.0257578E+02
 2.9330120E+00  1.1040369E+02
 2.9489090E+00  1.1727837E+02
 2.9648063E+00  1.1323106E+02
 2.9807034E+00  1.0673965E+02
 2.9966004E+00  1.0536542E+02
 3.0124974E+00  1.0861611E+02
 3.0283945E+00  1.1192944E+02
 3.0442917E+00  1.0815950E+02
 3.0601888E+00  1.0735875E+02
 3.0760858E+00  1.0406390E+02
 3.0919828E+00  1.0193743E+02
 3.1078799E+00  1.0193388E+02
 3.1237772E+00  1.0410832E+02
 3.1396742E+00  1.0860149E+02
 3.1555712E+00  1.1695592E+02
 3.1714683E+00  1.2055383E+02
 3.1873653E+00  1.1325924E+02
 3.2032626E+00  1.0764153E+02
 3.2191596E+00  1.0609350E+02
 3.2350566E+00  1.0585472E+02
 3.2509537E+00  1.0556001E+02
 3.2668507E+00  1.0373241E+02
 3.2827480E+00  1.0130423E+02
 3.2986450E+00  1.0024448E+02
 3.3145421E+00  1.0054179E+02
 3.3304391E+00  1.0078472E+02
 3.3463361E+00  9.9898415E+01
 3.3622334E+00  9.9129051E+01
 3.3781304E+00  9.9792290E+01
 3.3940275E+00  1.0301315E+02
 3.4099245E+00  1.0819791E+02
 3.4258218E+00  1.1129881E+02
 3.4417188E+00  1.1014149E+02
 3.4576159E+00  1.0666531E+02
 3.4735129E+00  1.0399783E+02
 3.4894099E+00  1.0437959E+02
 3.5053072E+00  1.0340575E+02
 3.5212042E+00  1.0159734E+02
 3.5371013E+00  1.0154534E+02
 3.5529983E+00  1.0220895E+02
 3.5688953E+00  1.0217564E+02
 3.5847926E+00  1.0271987E+02
 3.6006896E+00  1.0185885E+02
 3.6165867E+00  9.9917244E+01
 3.6324837E+00  9.8577721E+01
 3.6483808E+00  9.7686188E+01
 3.6642780E+00  9.7370346E+01
 3.6801751E+00  9.8913849E+01
 3.6960721E+00  1.0343054E+02
 3.7119691E+00  1.0762013E+02
 3.7278662E+00  1.0706836E+02
 3.7437634E+00  1.0209747E+02
 3.7596605E+00  9.9615440E+01
 3.7755575E+00  9.9432045E+01
 3.7914546E+00  9.9899849E+01
 3.8073516E+00  1.0063239E+02
 3.8232489E+00  9.9554825E+01
 3.8391459E+00  9.8703110E+01
 3.8550429E+00  9.9001785E+01
 3.8709400E+00  1.0163048E+02
 3.8868370E+00  1.0457375E+02
 3.9027343E+00  1.0422855E+02
 3.9186313E+00  1.0159467E+02
 3.9345284E+00  1.0046506E+02
 3.9504254E+00  1.0013882E+02
 3.9663224E+00  1.0045325E+02
 3.9822197E+00  9.9778587E+01
 3.9981167E+00  9.9021408E+01
 4.0140138E+00  9.9921089E+01
 4.0299110E+00  1.0029267E+02
 4.0458078E+00  1.0027998E+02
 4.0617051E+00  1.0100185E+02
 4.0776019E+00  1.0209043E+02
 4.0934992E+00  1.0227354E+02
 4.1093965E+00  1.0052287E+02
 4.1252933E+00  9.9071175E+01
 4.1411905E+00  9.8397308E+01
 4.1570873E+00  9.7672783E+01
 4.1729846E+00  9.7861580E+01
 4.1888819E+00  9.9311081E+01
 4.2047787E+00  1.0154754E+02
 4.2206759E+00  1.0174765E+02
 4.2365727E+00  1.0071045E+02
 4.2524700E+00  1.0080982E+02
 4.2683673E+00  1.0124366E+02
 4.2842641E+00  9.9810562E+01
 4.3001614E+00  9.9152443E+01
 4.3160582E+00  9.9697838E+01
 4.3319554E+00  1.0291226E+02
 4.3478527E+00  1.0738541E+02
 4.3637495E+00  1.0536839E+02
 4.3796468E+00  1.0337637E+02
 4.3955436E+00  1.0311877E+02
 4.4114408E+00  1.0149264E+02
 4.4273381E+00  1.0061651E+02
 4.4432349E+00  1.0051617E+02
 4.4591322E+00  9.8894455E+01
 4.4750290E+00  9.8060066E+01
 4.4909263E+00  9.8617622E+01
 4.5068235E+00  9.8966339E+01
 4.5227203E+00  9.8962013E+01
 4.5386176E+00  9.8688927E+01
 4.5545149E+00  9.8764641E+01
 4.5704117E+00  1.0008236E+02
 4.5863090E+00  1.0301821E+02
 4.6022058E+00  1.0701839E+02
 4.6181030E+00  1.0912257E+02
 4.6340003E+00  1.0715833E+02
 4.6498971E+00  1.0378151E+02
 4.6657944E+00  1.0181901E+02
 4.6816912E+00  1.0138509E+02
 4.6975884E+00  1.0136680E+02
 4.7134857E+00  1.0133327E+02
 4.7293825E+00  1.0136947E+02
 4.7452798E+00  1.0159059E+02
 4.7611766E+00  1.0121598E+02
 4.7770739E+00  1.0311048E+02
 4.7929711E+00  1.1480580E+02
 4.8088679E+00  1.3412273E+02
 4.8247652E+00  1.3308154E+02
 4.8406620E+00  1.1535228E+02
 4.8565593E+00  1.0266495E+02
 4.8724566E+00  1.0045862E+02
 4.8883533E+00  9.9770920E+01
 4.9042506E+00  9.9524292E+01
 4.9201474E+00  9.9745972E+01
 4.9360447E+00  1.0015706E+02
 4.9519420E+00  1.0207755E+02
 4.9678388E+00  1.0410313E+02
 4.9837360E+00  1.0215000E+02
 4.9996328E+00  9.9734245E+01
 5.0155301E+00  1.0027203E+02
 5.0314274E+00  1.0146924E+02
 5.0473242E+00  1.0152675E+02
 5.0632215E+00  1.0067632E+02
 5.0791183E+00  9.9535851E+01
 5.0950155E+00  9.8698280E+01
 5.1109128E+00  9.8143250E+01
 5.1268096E+00  9.7929504E+01
 5.1427069E+00  9.7910751E+01
 5.1586037E+00  9.9288918E+01
 5.1745009E+00  1.0111550E+02
 5.1903982E+00  1.0139849E+02
 5.2062950E+00  9.9587540E+01
 5.2221923E+00  9.7175102E+01
 5.2380891E+00  9.6309143E+01
 5.2539864E+00  9.7199356E+01
 5.2698836E+00  1.0049655E+02
 5.2857804E+00  1.0648426E+02
 5.3016777E+00  1.0818916E+02
 5.3175745E+00  1.0467712E+02
 5.3334718E+00  9.9706764E+01
 5.3493690E+00  9.6374954E+01
 5.3652658E+00  9.5768997E+01
 5.3811631E+00  9.9441002E+01
 5.3970599E+00  1.0490326E+02
 5.4129572E+00  1.1192866E+02
 5.4288545E+00  1.1360943E+02
 5.4447513E+00  1.1189325E+02
 5.4606485E+00  1.1299227E+02
 5.4765453E+00  1.0960880E+02
 5.4924426E+00  1.0295155E+02
 5.5083399E+00  1.0187379E+02
 5.5242367E+00  1.0315686E+02
 5.5401340E+00  9.9372910E+01
 5.5560308E+00  9.4725304E+01
 5.5719280E+00  9.2890663E+01
 5.5878253E+00  9.2062958E+01
 5.6037221E+00  9.1607025E+01
 5.6196194E+00  9.2245705E+01
 5.6355162E+00  9.2820587E+01
 5.6514134E+00  9.2310143E+01
 5.6673107E+00  9.2698639E+01
 5.6832075E+00  9.3424255E+01
 5.6991048E+00  9.3264587E+01
 5.7150016E+00  9.2050873E+01
 5.7308989E+00  9.0585800E+01
 5.7467961E+00  8.9623978E+01
 5.7626929E+00  8.9732094E+01
 5.7785902E+00  9.1241905E+01
 5.7944870E+00  9.2529694E+01
 5.8103843E+00  9.1620361E+01
 5.8262815E+00  9.1324936E+01
 5.8421783E+00  9.1428818E+01
 5.8580756E+00  9.1887100E+01
 5.8739724E+00  9.2361397E+01
 5.8898697E+00  9.3966156E+01
 5.9057670E+00  9.5680946E+01
 5.9216638E+00  9.1628601E+01
 5.9375610E+00  8.9269341E+01
 5.9534578E+00  9.0245628E+01
 5.9693551E+00  9.1581528E+01
 5.9852524E+00  9.3499573E+01
 6.0011492E+00  9.3749687E+01
 6.0170465E+00  9.2597374E+01
 6.0329437E+00  9.0865158E+01
 6.0488405E+00  8.9251503E+01
 6.0647378E+00  8.8293617E+01
 6.0806346E+00  8.8009056E+01
 6.0965319E+00  8.7563652E+01
 6.1124291E+00  8.6970772E+01
 6.1283259E+00  8.6225586E+01
 6.1442232E+00  8.5949783E+01
 6.1601200E+00  8.6122963E+01
 6.1760173E+00  8.6963379E+01
 6.1919146E+00  8.8968063E+01
 6.2078114E+00  9.0371994E+01
 6.2237086E+00  9.0701859E+01
 6.2396054E+00  9.0962624E+01
 6.2555027E+00  9.1277130E+01
 6.2714000E+00  9.2672340E+01
 6.2872968E+00  9.4865974E+01
 6.3031940E+00  9.5220497E+01
 6.3190908E+00  9.4092926E+01
 6.3349881E+00  9.2997696E+01
 6.3508854E+00  9.3587120E+01
 6.3667822E+00  9.6871407E+01
 6.3826795E+00  9.8563660E+01
 6.3985763E+00  9.6179199E+01
 6.4144735E+00  9.5654694E+01
 6.4303708E+00  9.3096466E+01
 6.4462676E+00  8.8435356E+01
 6.4621649E+00  8.6521782E+01
 6.4780617E+00  8.6469086E+01
 6.4939590E+00  8.7998848E+01
 6.5098562E+00  9.0430557E+01
 6.5257530E+00  9.1964584E+01
 6.5416503E+00  8.8670746E+01
 6.5575471E+00  8.6322685E+01
 6.5734444E+00  8.5530479E+01
 6.5893416E+00  8.4649826E+01
 6.6052384E+00  8.4067039E+01
 6.6211357E+00  8.3808060E+01
 6.6370325E+00  8.4235153E+01
 6.6529298E+00  8.4597572E+01
 6.6688271E+00  8.5031517E+01
 6.6847239E+00  8.6532562E+01
 6.7006211E+00  8.8212738E+01
 6.7165179E+00  8.7965935E+01
 6.7324152E+00  8.7892220E+01
 6.7483125E+00  9.0650749E+01
 6.7642093E+00  8.9741470E+01
 6.7801065E+00  8.6067078E+01
 6.7960033E+00  8.4247780E+01
 6.8119006E+00  8.3840965E+01
 6.8277979E+00  8.4341553E+01
 6.8436947E+00  8.5376892E+01
 6.8595920E+00  8.5213020E+01
 6.8754888E+00  8.4119339E+01
 6.8913860E+00  8.3688263E+01
 6.9072833E+00  8.3727440E+01
 6.9231801E+00  8.3384895E+01
 6.9390774E+00  8.2976448E+01
 6.9549742E+00  8.2982742E+01
 6.9708714E+00  8.3496559E+01
 6.9867687E+00  8.4356575E+01
 7.0026655E+00  8.4374695E+01
 7.0185628E+00  8.3666702E+01
 7.0344596E+00  8.3564461E+01
 7.0503569E+00  8.4171310E+01
 7.0662541E+00  8.5668243E+01
 7.0821509E+00  8.7254852E+01
 7.0980482E+00  8.9707504E+01
 7.1139450E+00  9.3945824E+01
 7.1298423E+00  9.3733299E+01
 7.1457396E+00  9.0564285E+01
 7.1616364E+00  9.0247002E+01
 7.1775336E+00  9.0395508E+01
 7.1934304E+00  8.9462891E+01
 7.2093277E+00  8.7934090E+01
 7.2252250E+00  8.7779160E+01
 7.2411218E+00  8.8869781E+01
 7.2570190E+00  9.0055801E+01
 7.2729158E+00  9.0243576E+01
 7.2888131E+00  9.0235092E+01
 7.3047104E+00  9.0549751E+01
 7.3206072E+00  9.0233543E+01
 7.3365045E+00  8.8855858E+01
 7.3524013E+00  8.7748970E+01
 7.3682985E+00  8.7072624E+01
 7.3841958E+00  8.8170372E+01
 7.4000926E+00  9.1012405E+01
 7.4159899E+00  9.3678040E+01
 7.4318867E+00  9.2163620E+01
 7.4477839E+00  8.8242561E+01
 7.4636812E+00  8.6754967E+01
 7.4795780E+00  8.7795776E+01
 7.4954753E+00  8.7823112E+01
 7.5113726E+00  8.6722420E+01
 7.5272694E+00  8.6325333E+01
 7.5431666E+00  8.5546661E+01
 7.5590634E+00  8.5105484E+01
 7.5749607E+00  8.5145027E+01
 7.5908580E+00  8.5589417E+01
 7.6067548E+00  8.6783623E+01
 7.6226521E+00  8.6528435E+01
 7.6385489E+00  8.4256187E+01
 7.6544461E+00  8.2946098E+01
 7.6703434E+00  8.3020607E+01
 7.6862402E+00  8.3877563E+01
 7.7021375E+00  8.4721603E+01
 7.7180343E+00  8.5002197E+01
 7.7339315E+00  8.4985626E+01
 7.7498288E+00  8.4632935E+01
 7.7657256E+00  8.4218513E+01
 7.7816229E+00  8.4941795E+01
 7.7975197E+00  8.9134903E+01
 7.8134170E+00  9.2710159E+01
 7.8293142E+00  9.4210228E+01
 7.8452110E+00  9.7119705E+01
 7.8611083E+00  9.8891579E+01
 7.8770051E+00  9.3772621E+01
 7.8929024E+00  8.8956596E+01
 7.9087996E+00  8.9656799E+01
 7.9246964E+00  1.0486048E+02
 7.9405937E+00  1.2398433E+02
 7.9564905E+00  1.1215096E+02
 7.9723878E+00  9.4839012E+01
 7.9882851E+00  9.3543861E+01
 8.0041819E+00  9.4820831E+01
 8.0200787E+00  1.0023070E+02
 8.0359764E+00  1.1005441E+02
 8.0518732E+00  1.0484470E+02
 8.0677700E+00  1.0506328E+02
 8.0836678E+00  1.0090612E+02
 8.0995646E+00  1.0268145E+02
 8.1154613E+00  1.0230765E+02
 8.1313581E+00  9.2486526E+01
 8.1472559E+00  8.5908691E+01
 8.1631527E+00  8.4367790E+01
 8.1790495E+00  8.4727005E+01
 8.1949472E+00  8.6081078E+01
 8.2108440E+00  9.0381233E+01
 8.2267408E+00  9.0538124E+01
 8.2426386E+00  8.7556862E+01
 8.2585354E+00  8.7654236E+01
 8.2744322E+00  8.9719322E+01
 8.2903299E+00  8.6493111E+01
 8.3062267E+00  8.5403038E+01
 8.3221235E+00  8.4220634E+01
 8.3380203E+00  8.4406433E+01
 8.3539181E+00  8.5677376E+01
 8.3698149E+00  8.8221344E+01
 8.3857117E+00  9.5558189E+01
 8.4016094E+00  1.1286463E+02
 8.4175062E+00  1.2218675E+02
 8.4334030E+00  1.1526936E+02
 8.4493008E+00  1.1101729E+02
 8.4651976E+00  1.1423844E+02
 8.4810944E+00  1.1007359E+02
 8.4969912E+00  9.9377388E+01
 8.5128889E+00  9.4495491E+01
 8.5287857E+00  9.3848068E+01
 8.5446825E+00  9.2473381E+01
 8.5605803E+00  9.0541733E+01
 8.5764771E+00  9.1512970E+01
 8.5923738E+00  9.4781265E+01
 8.6082716E+00  9.4221855E+01
 8.6241684E+00  9.0695450E+01
 8.6400652E+00  8.8812843E+01
 8.6559620E+00  8.8367424E+01
 8.6718597E+00  8.8636017E+01
 8.6877565E+00  8.8378304E+01
 8.7036533E+00  8.7695976E+01
 8.7195511E+00  8.7266602E+01
 8.7354479E+00  8.7224731E+01
 8.7513447E+00  8.8000336E+01
 8.7672424E+00  8.9539856E+01
 8.7831392E+00  9.1426590E+01
 8.7990360E+00  9.3357536E+01
 8.8149328E+00  9.1588623E+01
 8.8308306E+00  8.8517685E+01
 8.8467274E+00  8.8453918E+01
 8.8626242E+00  9.3010361E+01
 8.8785219E+00  9.8947754E+01
 8.8944187E+00  9.9593407E+01
 8.9103155E+00  9.4061646E+01
 8.9262133E+00  8.7475166E+01
 8.9421101E+00  8.6031303E+01
 8.9580069E+00  8.5988930E+01
 8.9739037E+00  8.6084846E+01
 8.9898014E+00  8.6642830E+01
 9.0056982E+00  8.7098175E+01
 9.0215950E+00  8.7308899E+01
 9.0374928E+00  8.8841316E+01
 9.0533895E+00  9.0488411E+01
 9.0692863E+00  9.3675720E+01
 9.0851841E+00  9.8034607E+01
 9.1010809E+00  1.0174887E+02
 9.1169777E+00  1.0350440E+02
 9.1328745E+00  9.9503937E+01
 9.1487722E+00  1.0087854E+02
 9.1646690E+00  1.0429099E+02
 9.1805658E+00  1.0422453E+02
 9.1964636E+00  1.0275477E+02
 9.2123604E+00  1.0074091E+02
 9.2282572E+00  9.9731316E+01
 9.2441549E+00  9.9720589E+01
 9.2600517E+00  9.9658249E+01
 9.2759485E+00  9.9872742E+01
 9.2918453E+00  1.0027042E+02
 9.3077431E+00  1.0039502E+02
 9.3236399E+00  1.0094847E+02
 9.3395367E+00  1.0209786E+02
 9.3554344E+00  1.0250958E+02
 9.3713312E+00  1.0206970E+02
 9.3872280E+00  1.0238943E+02
 9.4031258E+00  1.0386578E+02
 9.4190226E+00  1.0455460E+02
 9.4349194E+00  1.0529689E+02
 9.4508162E+00  1.0564188E+02
 9.4667139E+00  1.0533066E+02
 9.4826107E+00  1.0549719E+02
 9.4985075E+00  1.0615178E+02
 9.5144053E+00  1.0658956E+02
 9.5303020E+00  1.0602486E+02
 9.5461988E+00  1.0597394E+02
 9.5620966E+00  1.0688200E+02
 9.5779934E+00  1.0827668E+02
 9.5938902E+00  1.0862606E+02
 9.6097870E+00  1.0803451E+02
 9.6256847E+00  1.0966448E+02
 9.6415815E+00  1.1199375E+02
 9.6574783E+00  1.1426458E+02
 9.6733761E+00  1.1713640E+02
 9.6892729E+00  1.1592332E+02
 9.7051697E+00  1.1297181E+02
 9.7210674E+00  1.1325972E+02
 9.7369642E+00  1.1397802E+02
 9.7528610E+00  1.1422078E+02
 9.7687588E+00  1.1464621E+02
 9.7846556E+00  1.1536746E+02
 9.8005524E+00  1.1597746E+02
 9.8164492E+00  1.1645676E+02
 9.8323469E+00  1.1760509E+02
 9.8482437E+00  1.1945676E+02
 9.8641405E+00  1.2227617E+02
 9.8800383E+00  1.2843913E+02
 9.8959351E+00  1.3552879E+02
 9.9118319E+00  1.4017058E+02
 9.9277296E+00  1.4569009E+02
 9.9436264E+00  1.4658424E+02
 9.9595232E+00  1.4525563E+02
 9.9754200E+00  1.4130652E+02
 9.9913177E+00  1.3602248E+02
 1.0007215E+01  1.3309180E+02
 1.0023111E+01  1.3010979E+02
 1.0039009E+01  1.2766908E+02
 1.0054906E+01  1.2674353E+02
 1.0070803E+01  1.2700077E+02
 1.0086700E+01  1.2811784E+02
 1.0102597E+01  1.2850890E+02
 1.0118494E+01  1.2835612E+02
 1.0134391E+01  1.2915221E+02
 1.0150289E+01  1.3030646E+02
 1.0166185E+01  1.3086449E+02
 1.0182082E+01  1.3006306E+02
 1.0197980E+01  1.2868779E+02
 1.0213877E+01  1.2912918E+02
 1.0229774E+01  1.3145137E+02
 1.0245671E+01  1.3322552E+02
 1.0261568E+01  1.3297289E+02
 1.0277465E+01  1.3242641E+02
 1.0293362E+01  1.3320938E+02
 1.0309259E+01  1.3288565E+02
 1.0325156E+01  1.3150668E+02
 1.0341053E+01  1.3088396E+02
 1.0356951E+01  1.3155244E+02
 1.0372848E+01  1.3480630E+02
 1.0388744E+01  1.3840205E+02
 1.0404642E+01  1.4384297E+02
 1.0420539E+01  1.4465970E+02
 1.0436436E+01  1.4693567E+02
 1.0452332E+01  1.6680118E+02
 1.0468230E+01  1.6147061E+02
 1.0484127E+01  1.4108867E+02
 1.0500024E+01  1.3744519E+02
 1.0515922E+01  1.3832196E+02
 1.0531818E+01  1.4018719E+02
 1.0547715E+01  1.4188042E+02
 1.0563613E+01  1.4300450E+02
 1.0579510E+01  1.4395976E+02
 1.0595407E+01  1.4481886E+02
 1.0611303E+01  1.4749640E+02
 1.0627201E+01  1.5122606E+02
 1.0643098E+01  1.5325763E+02
 1.0658995E+01  1.5123885E+02
 1.0674892E+01  1.4715701E+02
 1.0690789E+01  1.4482661E+02
 1.0706686E+01  1.4412833E+02
 1.0722584E+01  1.4489058E+02
 1.0738481E+01  1.4567049E+02
 1.0754377E+01  1.4482106E+02
 1.0770274E+01  1.4450027E+02
 1.0786172E+01  1.4431265E+02
 1.0802069E+01  1.4432391E+02
 1.0817966E+01  1.4602487E+02
 1.0833863E+01  1.4696846E+02
 1.0849760E+01  1.4650978E+02
 1.0865657E+01  1.4656873E+02
 1.0881555E+01  1.4999593E+02
 1.0897451E+01  1.5438126E+02
 1.0913348E+01  1.5495535E+02
 1.0929245E+01  1.5228558E+02
 1.0945143E+01  1.5301385E+02
 1.0961040E+01  1.5282809E+02
 1.0976936E+01  1.5248409E+02
 1.0992834E+01  1.5387288E+02
 1.1008731E+01  1.5417834E+02
 1.1024628E+01  1.5188184E+02
 1.1040525E+01  1.5267844E+02
 1.1056422E+01  1.5391022E+02
 1.1072319E+01  1.5439331E+02
 1.1088216E+01  1.5568713E+02
 1.1104114E+01  1.5963002E+02
 1.1120010E+01  1.6201167E+02
 1.1135907E+01  1.6226588E+02
 1.1151805E+01  1.6300714E+02
 1.1167702E+01  1.6466199E+02
 1.1183599E+01  1.6698453E+02
 1.1199496E+01  1.7162608E+02
 1.1215393E+01  1.7748421E+02
 1.1231290E+01  1.7636324E+02
 1.1247188E+01  1.7444691E+02
 1.1263084E+01  1.7441145E+02
 1.1278981E+01  1.7812634E+02
 1.1294878E+01  1.7432961E+02
 1.1310776E+01  1.6801707E+02
 1.1326673E+01  1.6794704E+02
 1.1342569E+01  1.7218149E+02
 1.1358467E+01  1.7282480E+02
 1.1374364E+01  1.6855952E+02
 1.1390261E+01  1.6748386E+02
 1.1406158E+01  1.7056767E+02
 1.1422055E+01  1.7105295E+02
 1.1437952E+01  1.6950085E+02
 1.1453849E+01  1.6742345E+02
 1.1469747E+01  1.6763359E+02
 1.1485643E+01  1.6870378E+02
 1.1501540E+01  1.7018849E+02
 1.1517438E+01  1.7096178E+02
 1.1533335E+01  1.7106984E+02
 1.1549232E+01  1.7303546E+02
 1.1565129E+01  1.7788693E+02
 1.1581026E+01  1.8097012E+02
 1.1596923E+01  1.9206163E+02
 1.1612820E+01  2.1102766E+02
 1.1628717E+01  1.9208098E+02
 1.1644614E+01  1.9281598E+02
 1.1660511E+01  1.8655057E+02
 1.1676409E+01  1.8635614E+02
 1.1692306E+01  1.8612480E+02
 1.1708202E+01  1.8239534E+02
 1.1724100E+01  1.7884058E+02
 1.1739997E+01  1.7731947E+02
 1.1755894E+01  1.7712083E+02
 1.1771791E+01  1.7730666E+02
 1.1787688E+01  1.7888628E+02
 1.1803585E+01  1.8140723E+02
 1.1819482E+01  1.8612872E+02
 1.1835380E+01  2.0362991E+02
 1.1851276E+01  2.1747160E+02
 1.1867173E+01  2.0790764E+02
 1.1883071E+01  1.9591966E+02
 1.1898968E+01  1.9155424E+02
 1.1914865E+01  1.8644072E+02
 1.1930761E+01  1.8381044E+02
 1.1946659E+01  1.8254492E+02
 1.1962556E+01  1.8279323E+02
 1.1978453E+01  1.8507698E+02
 1.1994350E+01  1.8744824E+02
 1.2010247E+01  1.8814151E+02
 1.2026144E+01  1.8681207E+02
 1.2042042E+01  1.8559836E+02
 1.2057939E+01  1.8420650E+02
 1.2073835E+01  1.8273576E+02
 1.2089732E+01  1.8216174E+02
 1.2105630E+01  1.8139984E+02
 1.2121527E+01  1.8023219E+02
 1.2137424E+01  1.7994756E+02
 1.2153321E+01  1.8015051E+02
 1.2169218E+01  1.8098209E+02
 1.2185115E+01  1.8224854E+02
 1.2201013E+01  1.8613635E+02
 1.2216909E+01  1.9048357E+02
 1.2232806E+01  1.9124152E+02
 1.2248703E+01  1.8866315E+02
 1.2264601E+01  1.8696138E+02
 1.2280498E+01  1.9042618E+02
 1.2296394E+01  1.8898157E+02
 1.2312292E+01  1.8101338E+02
 1.2328189E+01  1.7667386E+02
 1.2344086E+01  1.7561151E+02
 1.2359983E+01  1.7618597E+02
 1.2375880E+01  1.7704099E+02
 1.2391777E+01  1.7805800E+02
 1.2407674E+01  1.8044637E+02
 1.2423572E+01  1.8323143E+02
 1.2439468E+01  1.8437317E+02
 1.2455365E+01  1.8180420E+02
 1.2471263E+01  1.7811021E+02
 1.2487160E+01  1.7846413E+02
 1.2503057E+01  1.8118916E+02
 1.2518954E+01  1.8384668E+02
 1.2534851E+01  1.8172514E+02
 1.2550748E+01  1.7988960E+02
 1.2566645E+01  1.7889848E+02
 1.2582542E+01  1.7810623E+02
 1.2598439E+01  1.7659720E+02
 1.2614336E+01  1.7607112E+02
 1.2630234E+01  1.7733304E+02
 1.2646131E+01  1.7744766E+02
 1.2662027E+01  1.7468996E+02
 1.2677925E+01  1.7247081E+02
 1.2693822E+01  1.7210077E+02
 1.2709719E+01  1.7351805E+02
 1.2725616E+01  1.7611684E+02
 1.2741513E+01  1.7875929E+02
 1.2757410E+01  1.7958362E+02
 1.2773307E+01  1.7747542E+02
 1.2789205E+01  1.7324786E+02
 1.2805101E+01  1.7041049E+02
 1.2820998E+01  1.7122905E+02
 1.2836896E+01  1.7432370E+02
 1.2852793E+01  1.7419458E+02
 1.2868690E+01  1.7694344E+02
 1.2884587E+01  1.8006525E+02
 1.2900484E+01  1.7732831E+02
 1.2916381E+01  1.7316295E+02
 1.2932278E+01  1.7166045E+02
 1.2948175E+01  1.7308804E+02
 1.2964072E+01  1.7137546E+02
 1.2979969E+01  1.7111494E+02
 1.2995867E+01  1.7141182E+02
 1.3011764E+01  1.6789169E+02
 1.3027660E+01  1.6586456E+02
 1.3043558E+01  1.6610806E+02
 1.3059455E+01  1.7007744E+02
 1.3075352E+01  1.7494865E+02
 1.3091249E+01  1.7286855E+02
 1.3107146E+01  1.6804962E+02
 1.3123043E+01  1.6833656E+02
 1.3138940E+01  1.6881590E+02
 1.3154838E+01  1.6686386E+02
 1.3170734E+01  1.6548784E+02
 1.3186631E+01  1.6504736E+02
 1.3202529E+01  1.6451863E+02
 1.3218426E+01  1.6951486E+02
 1.3234323E+01  1.7030881E+02
 1.3250219E+01  1.6760863E+02
 1.3266117E+01  1.6543712E+02
 1.3282014E+01  1.6444144E+02
 1.3297911E+01  1.6391325E+02
 1.3313808E+01  1.6233777E+02
 1.3329705E+01  1.6137810E+02
 1.3345602E+01  1.6171680E+02
 1.3361500E+01  1.6242430E+02
 1.3377397E+01  1.6394069E+02
 1.3393293E+01  1.6642961E+02
 1.3409190E+01  1.7001559E+02
 1.3425088E+01  1.7340501E+02
 1.3440985E+01  1.7723888E+02
 1.3456882E+01  1.7692490E+02
 1.3472779E+01  1.7511139E+02
 1.3488676E+01  1.7618703E+02
 1.3504573E+01  1.7722073E+02
 1.3520471E+01  1.7387010E+02
 1.3536367E+01  1.6929759E+02
 1.3552264E+01  1.6719412E+02
 1.3568161E+01  1.6842096E+02
 1.3584059E+01  1.6879218E+02
 1.3599956E+01  1.6918875E+02
 1.3615852E+01  1.7086072E+02
 1.3631750E+01  1.7173721E+02
 1.3647647E+01  1.6962056E+02
 1.3663544E+01  1.6827823E+02
 1.3679441E+01  1.6896689E+02
 1.3695338E+01  1.7123772E+02
 1.3711235E+01  1.7231158E+02
 1.3727132E+01  1.6936473E+02
 1.3743030E+01  1.6528871E+02
 1.3758926E+01  1.6472861E+02
 1.3774823E+01  1.6812691E+02
 1.3790721E+01  1.7003497E+02
 1.3806618E+01  1.6787096E+02
 1.3822515E+01  1.6561087E+02
 1.3838412E+01  1.6628728E+02
 1.3854309E+01  1.6732466E+02
 1.3870206E+01  1.6755348E+02
 1.3886103E+01  1.6761453E+02
 1.3902000E+01  1.6873608E+02
 1.3917897E+01  1.7343304E+02
 1.3933794E+01  1.7560965E+02
 1.3949692E+01  1.7402773E+02
 1.3965589E+01  1.7534540E+02
 1.3981485E+01  1.7819563E+02
 1.3997383E+01  1.8404713E+02
 1.4013280E+01  1.9484998E+02
 1.4029177E+01  1.8292882E+02
 1.4045074E+01  1.7061922E+02
 1.4060971E+01  1.6693846E+02
 1.4076868E+01  1.6764906E+02
 1.4092765E+01  1.6843343E+02
 1.4108663E+01  1.6816859E+02
 1.4124559E+01  1.6814381E+02
 1.4140456E+01  1.7086314E+02
 1.4156354E+01  1.7750151E+02
 1.4172251E+01  1.8464932E+02
 1.4188148E+01  1.8300665E+02
 1.4204045E+01  1.7558134E+02
 1.4219942E+01  1.7186378E+02
 1.4235839E+01  1.7190169E+02
 1.4251736E+01  1.7244116E+02
 1.4267633E+01  1.7179021E+02
 1.4283530E+01  1.7244620E+02
 1.4299427E+01  1.7375777E+02
 1.4315325E+01  1.7470891E+02
 1.4331222E+01  1.7353918E+02
 1.4347118E+01  1.7273633E+02
 1.4363016E+01  1.7220163E+02
 1.4378913E+01  1.7214781E+02
 1.4394810E+01  1.7433768E+02
 1.4410707E+01  1.7675427E+02
 1.4426604E+01  1.7833582E+02
 1.4442501E+01  1.8257071E+02
 1.4458398E+01  1.8566002E+02
 1.4474296E+01  1.8939839E+02
 1.4490192E+01  1.9526300E+02
 1.4506089E+01  1.9531781E+02
 1.4521987E+01  1.8945860E+02
 1.4537884E+01  1.8709903E+02
 1.4553781E+01  1.9193373E+02
 1.4569677E+01  1.9494727E+02
 1.4585575E+01  1.9088779E+02
 1.4601472E+01  1.9544652E+02
 1.4617369E+01  1.8929640E+02
 1.4633266E+01  1.8933026E+02
 1.4649163E+01  1.9785019E+02
 1.4665060E+01  1.9336980E+02
 1.4680958E+01  1.9282254E+02
 1.4696855E+01  1.9309412E+02
 1.4712751E+01  1.9125543E+02
 1.4728648E+01  1.9062396E+02
 1.4744546E+01  1.9093309E+02
 1.4760443E+01  1.8994272E+02
 1.4776340E+01  1.9217310E+02
 1.4792237E+01  1.9514056E+02
 1.4808134E+01  1.9819612E+02
 1.4824031E+01  1.9894991E+02
 1.4839929E+01  2.0610272E+02
 1.4855825E+01  2.2779633E+02
 1.4871722E+01  2.0414070E+02
 1.4887619E+01  1.9583969E+02
 1.4903517E+01  2.0323734E+02
 1.4919414E+01  2.0846196E+02
 1.4935310E+01  2.0555070E+02
 1.4951208E+01  1.9959982E+02
 1.4967105E+01  1.9435045E+02
 1.4983002E+01  1.9220271E+02
 1.4998899E+01  1.9194127E+02
 1.5014796E+01  1.9115997E+02
 1.5030693E+01  1.8962158E+02
 1.5046590E+01  1.8923526E+02
 1.5062488E+01  1.8888216E+02
 1.5078384E+01  1.8797319E+02
 1.5094281E+01  1.8635284E+02
 1.5110179E+01  1.8514545E+02
 1.5126076E+01  1.8591899E+02
 1.5141973E+01  1.8779425E+02
 1.5157870E+01  1.8770409E+02
 1.5173767E+01  1.8704085E+02
 1.5189664E+01  1.8789468E+02
 1.5205561E+01  1.9108856E+02
 1.5221458E+01  1.9913618E+02
 1.5237355E+01  2.0073941E+02
 1.5253252E+01  1.9313744E+02
 1.5269150E+01  1.9012347E+02
 1.5285047E+01  1.8947690E+02
 1.5300943E+01  1.8690421E+02
 1.5316841E+01  1.8583665E+02
 1.5332738E+01  1.8469270E+02
 1.5348635E+01  1.8370285E+02
 1.5364532E+01  1.8739542E+02
 1.5380429E+01  1.9545946E+02
 1.5396326E+01  1.8989233E+02
 1.5412223E+01  1.9223436E+02
 1.5428121E+01  1.9317570E+02
 1.5444017E+01  1.8601045E+02
 1.5459914E+01  1.8060086E+02
 1.5475812E+01  1.8021291E+02
 1.5491709E+01  1.8005270E+02
 1.5507606E+01  1.7963205E+02
 1.5523502E+01  1.7989178E+02
 1.5539400E+01  1.8277843E+02
 1.5555297E+01  1.8892178E+02
 1.5571194E+01  1.9865652E+02
 1.5587091E+01  2.0105565E+02
 1.5602988E+01  1.8371107E+02
 1.5618885E+01  1.8292694E+02
 1.5634783E+01  1.8347675E+02
 1.5650680E+01  1.8198564E+02
 1.5666576E+01  1.8044778E+02
 1.5682473E+01  1.7941922E+02
 1.5698371E+01  1.8031529E+02
 1.5714268E+01  1.8038049E+02
 1.5730165E+01  1.7859381E+02
 1.5746062E+01  1.7793913E+02
 1.5761959E+01  1.7870923E+02
 1.5777856E+01  1.7926300E+02
 1.5793754E+01  1.8225595E+02
 1.5809650E+01  1.9490276E+02
 1.5825547E+01  2.0712973E+02
 1.5841445E+01  2.0561357E+02
 1.5857342E+01  2.0071407E+02
 1.5873239E+01  1.8990446E+02
 1.5889135E+01  1.8146950E+02
 1.5905033E+01  1.7662268E+02
 1.5920930E+01  1.7594977E+02
 1.5936827E+01  1.7786908E+02
 1.5952724E+01  1.7883665E+02
 1.5968621E+01  1.7576067E+02
 1.5984518E+01  1.7197159E+02
 1.6000416E+01  1.7091133E+02
 1.6016312E+01  1.7134070E+02
 1.6032209E+01  1.7308684E+02
 1.6048107E+01  1.7389549E+02
 1.6064003E+01  1.7453662E+02
 1.6079901E+01  1.7684296E+02
 1.6095798E+01  1.7767845E+02
 1.6111694E+01  1.7719910E+02
 1.6127592E+01  1.7774675E+02
 1.6143490E+01  1.7849834E+02
 1.6159386E+01  1.8634497E+02
 1.6175283E+01  2.0070360E+02
 1.6191181E+01  1.9650200E+02
 1.6207077E+01  1.8485544E+02
 1.6222975E+01  1.8506870E+02
 1.6238873E+01  1.9437030E+02
 1.6254768E+01  2.0475940E+02
 1.6270666E+01  2.0937982E+02
 1.6286562E+01  2.0005315E+02
 1.6302460E+01  1.8198367E+02
 1.6318357E+01  1.7316522E+02
 1.6334253E+01  1.7259070E+02
 1.6350151E+01  1.7419925E+02
 1.6366049E+01  1.7660715E+02
 1.6381945E+01  1.7910876E+02
 1.6397842E+01  1.7366544E+02
 1.6413740E+01  1.7091151E+02
 1.6429636E+01  1.7488402E+02
 1.6445534E+01  1.7959511E+02
 1.6461432E+01  1.8066856E+02
 1.6477327E+01  1.7735652E+02
 1.6493225E+01  1.7653137E+02
 1.6509123E+01  1.9151633E+02
 1.6525019E+01  2.1963010E+02
 1.6540916E+01  2.2497049E+02
 1.6556814E+01  2.0397078E+02
 1.6572710E+01  1.9344496E+02
 1.6588608E+01  1.8910104E+02
 1.6604504E+01  1.7736900E+02
 1.6620401E+01  1.7703618E+02
 1.6636299E+01  1.8107036E+02
 1.6652195E+01  1.8410480E+02
 1.6668093E+01  1.8202303E+02
 1.6683990E+01  1.7826541E+02
 1.6699886E+01  1.7743422E+02
 1.6715784E+01  1.8377409E+02
 1.6731682E+01  1.8870348E+02
 1.6747578E+01  1.7895335E+02
 1.6763475E+01  1.6922916E+02
 1.6779373E+01  1.6709856E+02
 1.6795269E+01  1.6624355E+02
 1.6811167E+01  1.6581921E+02
 1.6827065E+01  1.6781329E+02
 1.6842960E+01  1.7129398E+02
 1.6858858E+01  1.7270874E+02
 1.6874756E+01  1.6860695E+02
 1.6890652E+01  1.6530766E+02
 1.6906549E+01  1.6444930E+02
 1.6922445E+01  1.6383611E+02
 1.6938343E+01  1.6495636E+02
 1.6954241E+01  1.6973445E+02
 1.6970137E+01  1.7543184E+02
 1.6986034E+01  1.6979712E+02
 1.7001932E+01  1.6471297E+02
 1.7017828E+01  1.6598801E+02
 1.7033726E+01  1.6748964E+02
 1.7049623E+01  1.6565662E+02
 1.7065519E+01  1.6200029E+02
 1.7081417E+01  1.6186185E+02
 1.7097315E+01  1.6390125E+02
 1.7113211E+01  1.6839516E+02
 1.7129108E+01  1.6850072E+02
 1.7145006E+01  1.6475587E+02
 1.7160902E+01  1.6103375E+02
 1.7176800E+01  1.5985378E+02
 1.7192698E+01  1.6487999E+02
 1.7208593E+01  1.7706891E+02
 1.7224491E+01  1.7500008E+02
 1.7240389E+01  1.6261702E+02
 1.7256285E+01  1.5867722E+02
 1.7272182E+01  1.5728632E+02
 1.7288078E+01  1.5496606E+02
 1.7303976E+01  1.5552365E+02
 1.7319874E+01  1.5545143E+02
 1.7335770E+01  1.5519745E+02
 1.7351667E+01  1.5704622E+02
 1.7367565E+01  1.5903612E+02
 1.7383461E+01  1.6076273E+02
 1.7399359E+01  1.6006696E+02
 1.7415257E+01  1.5932841E+02
 1.7431152E+01  1.6117868E+02
 1.7447050E+01  1.6375368E+02
 1.7462948E+01  1.6593359E+02
 1.7478844E+01  1.7150092E+02
 1.7494741E+01  1.8229349E+02
 1.7510639E+01  1.8326904E+02
 1.7526535E+01  1.7425591E+02
 1.7542433E+01  1.6769090E+02
 1.7558331E+01  1.6361554E+02
 1.7574226E+01  1.6453659E+02
 1.7590124E+01  1.7591760E+02
 1.7606020E+01  2.0355165E+02
 1.7621918E+01  2.2196263E+02
 1.7637815E+01  1.9388818E+02
 1.7653711E+01  1.7492831E+02
 1.7669609E+01  1.6820703E+02
 1.7685507E+01  1.6685747E+02
 1.7701403E+01  1.7012518E+02
 1.7717300E+01  1.7392883E+02
 1.7733198E+01  1.7148740E+02
 1.7749094E+01  1.6935951E+02
 1.7764992E+01  1.6929761E+02
 1.7780890E+01  1.7280418E+02
 1.7796785E+01  1.8298233E+02
 1.7812683E+01  1.7583174E+02
 1.7828581E+01  1.6586809E+02
 1.7844477E+01  1.6840468E+02
 1.7860374E+01  1.7026616E+02
 1.7876272E+01  1.7226324E+02
 1.7892168E+01  1.7473271E+02
 1.7908066E+01  1.7154411E+02
 1.7923962E+01  1.6770746E+02
 1.7939859E+01  1.6796326E+02
 1.7955757E+01  1.7077721E+02
 1.7971653E+01  1.6991316E+02
 1.7987551E+01  1.6608827E+02
 1.8003448E+01  1.6381943E+02
 1.8019344E+01  1.6347536E+02
 1.8035242E+01  1.6520091E+02
 1.8051140E+01  1.6946877E+02
 1.8067036E+01  1.7605539E+02
 1.8082933E+01  1.8925336E+02
 1.8098831E+01  2.0941190E+02
 1.8114727E+01  1.9246846E+02
 1.8130625E+01  1.6391263E+02
 1.8146523E+01  1.5452528E+02
 1.8162418E+01  1.5364200E+02
 1.8178316E+01  1.5726440E+02
 1.8194214E+01  1.6128568E+02
 1.8210110E+01  1.5568982E+02
 1.8226007E+01  1.4826807E+02
 1.8241903E+01  1.4903362E+02
 1.8257801E+01  1.4829483E+02
 1.8273699E+01  1.4744298E+02
 1.8289595E+01  1.5112863E+02
 1.8305492E+01  1.4890434E+02
 1.8321390E+01  1.4648778E+02
 1.8337286E+01  1.4483398E+02
 1.8353184E+01  1.4463107E+02
 1.8369081E+01  1.5431136E+02
 1.8384977E+01  1.5772495E+02
 1.8400875E+01  1.4827400E+02
 1.8416773E+01  1.4637198E+02
 1.8432669E+01  1.5018590E+02
 1.8448566E+01  1.4895552E+02
 1.8464464E+01  1.4425258E+02
 1.8480360E+01  1.4217238E+02
 1.8496258E+01  1.4145552E+02
 1.8512156E+01  1.4044231E+02
 1.8528051E+01  1.4086290E+02
 1.8543949E+01  1.4219003E+02
 1.8559845E+01  1.4474054E+02
 1.8575743E+01  1.4513718E+02
 1.8591640E+01  1.4263391E+02
 1.8607536E+01  1.4309599E+02
 1.8623434E+01  1.4610794E+02
 1.8639332E+01  1.4729048E+02
 1.8655228E+01  1.4435207E+02
 1.8671125E+01  1.4398784E+02
 1.8687023E+01  1.4488414E+02
 1.8702919E+01  1.4659598E+02
 1.8718817E+01  1.4790359E+02
 1.8734715E+01  1.4655414E+02
 1.8750610E+01  1.4400565E+02
 1.8766508E+01  1.4337991E+02
 1.8782406E+01  1.4346614E+02
 1.8798302E+01  1.4172980E+02
 1.8814199E+01  1.4127989E+02
 1.8830097E+01  1.4177126E+02
 1.8845993E+01  1.4447972E+02
 1.8861891E+01  1.4742998E+02
 1.8877789E+01  1.4889391E+02
 1.8893684E+01  1.5199416E+02
 1.8909582E+01  1.4812701E+02
 1.8925478E+01  1.4386504E+02
 1.8941376E+01  1.4284103E+02
 1.8957273E+01  1.4618323E+02
 1.8973169E+01  1.5093823E+02
 1.8989067E+01  1.5227486E+02
 1.9004965E+01  1.5144247E+02
 1.9020861E+01  1.4919704E+02
 1.9036758E+01  1.4852211E+02
 1.9052656E+01  1.5478944E+02
 1.9068552E+01  1.6611021E+02
 1.9084450E+01  1.5821619E+02
 1.9100348E+01  1.5297453E+02
 1.9116243E+01  1.5192770E+02
 1.9132141E+01  1.5181178E+02
 1.9148039E+01  1.5233711E+02
 1.9163935E+01  1.5045543E+02
 1.9179832E+01  1.4382811E+02
 1.9195730E+01  1.4043129E+02
 1.9211626E+01  1.4065137E+02
 1.9227524E+01  1.4038318E+02
 1.9243420E+01  1.3963489E+02
 1.9259317E+01  1.3666782E+02
 1.9275215E+01  1.3624214E+02
 1.9291111E+01  1.3566438E+02
 1.9307009E+01  1.3616719E+02
 1.9322906E+01  1.3757242E+02
 1.9338802E+01  1.3789949E+02
 1.9354700E+01  1.4356339E+02
 1.9370598E+01  1.5465083E+02
 1.9386494E+01  1.5465329E+02
 1.9402391E+01  1.4590634E+02
 1.9418289E+01  1.3923563E+02
 1.9434185E+01  1.3523039E+02
 1.9450083E+01  1.3413370E+02
 1.9465981E+01  1.3444121E+02
 1.9481876E+01  1.3441194E+02
 1.9497774E+01  1.3334810E+02
 1.9513672E+01  1.3269666E+02
 1.9529568E+01  1.3273128E+02
 1.9545465E+01  1.3344359E+02
 1.9561361E+01  1.3560464E+02
 1.9577259E+01  1.4051225E+02
 1.9593157E+01  1.4383182E+02
 1.9609053E+01  1.4123206E+02
 1.9624950E+01  1.3942819E+02
 1.9640848E+01  1.3724353E+02
 1.9656744E+01  1.3474963E+02
 1.9672642E+01  1.3394287E+02
 1.9688540E+01  1.3506570E+02
 1.9704435E+01  1.3600574E+02
 1.9720333E+01  1.3485475E+02
 1.9736231E+01  1.3297264E+02
 1.9752127E+01  1.3269501E+02
 1.9768024E+01  1.3380339E+02
 1.9783922E+01  1.3471921E+02
 1.9799818E+01  1.3482864E+02
 1.9815716E+01  1.3460928E+02
 1.9831614E+01  1.3425365E+02
 1.9847509E+01  1.3692688E+02
 1.9863407E+01  1.3851718E+02
 1.9879303E+01  1.3685593E+02
 1.9895201E+01  1.3712920E+02
 1.9911098E+01  1.4238306E+02
 1.9926994E+01  1.4781055E+02
 1.9942892E+01  1.4648758E+02
 1.9958790E+01  1.4187874E+02
 1.9974686E+01  1.3870839E+02
 1.9990583E+01  1.3697723E+02
 2.0006481E+01  1.3782077E+02
 2.0022377E+01  1.3817253E+02
 2.0038275E+01  1.3642145E+02
 2.0054173E+01  1.3339326E+02
 2.0070068E+01  1.3204164E+02
 2.0085966E+01  1.3372308E+02
 2.0101864E+01  1.3860777E+02
 2.0117760E+01  1.4640311E+02
 2.0133657E+01  1.4715779E+02
 2.0149555E+01  1.3705721E+02
 2.0165451E+01  1.2987422E+02
 2.0181349E+01  1.2801550E+02
 2.0197247E+01  1.2946672E+02
 2.0213142E+01  1.3191049E+02
 2.0229040E+01  1.3390736E+02
 2.0244936E+01  1.3103960E+02
 2.0260834E+01  1.2889386E+02
 2.0276731E+01  1.2798563E+02
 2.0292627E+01  1.2809616E+02
 2.0308525E+01  1.2727525E+02
 2.0324423E+01  1.2645551E+02
 2.0340319E+01  1.2643758E+02
 2.0356216E+01  1.2796629E+02
 2.0372114E+01  1.3008698E+02
 2.0388010E+01  1.3005927E+02
 2.0403908E+01  1.2845642E+02
 2.0419806E+01  1.2932758E+02
 2.0435701E+01  1.2865594E+02
 2.0451599E+01  1.2756339E+02
 2.0467497E+01  1.2867969E+02
 2.0483393E+01  1.3124559E+02
 2.0499290E+01  1.3468423E+02
 2.0515188E+01  1.3343486E+02
 2.0531084E+01  1.3003047E+02
 2.0546982E+01  1.2942741E+02
 2.0562878E+01  1.3195341E+02
 2.0578775E+01  1.3316905E+02
 2.0594673E+01  1.3150642E+02
 2.0610569E+01  1.3250859E+02
 2.0626467E+01  1.3275159E+02
 2.0642365E+01  1.3310887E+02
 2.0658260E+01  1.3825310E+02
 2.0674158E+01  1.4511021E+02
 2.0690056E+01  1.4857767E+02
 2.0705952E+01  1.4729558E+02
 2.0721849E+01  1.4447217E+02
 2.0737747E+01  1.4002405E+02
 2.0753643E+01  1.3777744E+02
 2.0769541E+01  1.3995775E+02
 2.0785439E+01  1.4812770E+02
 2.0801334E+01  1.6043114E+02
 2.0817232E+01  1.6289267E+02
 2.0833130E+01  1.4966145E+02
 2.0849026E+01  1.4094313E+02
 2.0864923E+01  1.3242807E+02
 2.0880819E+01  1.2673425E+02
 2.0896717E+01  1.2658657E+02
 2.0912615E+01  1.3897072E+02
 2.0928511E+01  1.5011427E+02
 2.0944408E+01  1.3284294E+02
 2.0960306E+01  1.2495956E+02
 2.0976202E+01  1.2198649E+02
 2.0992100E+01  1.2218115E+02
 2.1007998E+01  1.2324344E+02
 2.1023893E+01  1.2271790E+02
 2.1039791E+01  1.1957625E+02
 2.1055689E+01  1.1714057E+02
 2.1071585E+01  1.1566341E+02
 2.1087482E+01  1.1549337E+02
 2.1103380E+01  1.1592366E+02
 2.1119276E+01  1.1604588E+02
 2.1135174E+01  1.1690627E+02
 2.1151072E+01  1.1688451E+02
 2.1166967E+01  1.1624025E+02
 2.1182865E+01  1.1600713E+02
 2.1198761E+01  1.1728554E+02
 2.1214659E+01  1.1841096E+02
 2.1230556E+01  1.1814149E+02
 2.1246452E+01  1.1571869E+02
 2.1262350E+01  1.1509531E+02
 2.1278248E+01  1.1589240E+02
 2.1294144E+01  1.1693540E+02
 2.1310041E+01  1.1808112E+02
 2.1325939E+01  1.1891618E+02
 2.1341835E+01  1.1999442E+02
 2.1357733E+01  1.2036196E+02
 2.1373631E+01  1.2037521E+02
 2.1389526E+01  1.1928193E+02
 2.1405424E+01  1.1871940E+02
 2.1421322E+01  1.2392583E+02
 2.1437218E+01  1.3452733E+02
 2.1453115E+01  1.3548790E+02
 2.1469013E+01  1.3307536E+02
 2.1484909E+01  1.3424124E+02
 2.1500807E+01  1.3736382E+02
 2.1516703E+01  1.3235660E+02
 2.1532600E+01  1.2079355E+02
 2.1548498E+01  1.1537357E+02
 2.1564394E+01  1.1345264E+02
 2.1580292E+01  1.1286988E+02
 2.1596189E+01  1.1295628E+02
 2.1612085E+01  1.1336788E+02
 2.1627983E+01  1.1370447E+02
 2.1643881E+01  1.1318897E+02
 2.1659777E+01  1.1340350E+02
 2.1675674E+01  1.1446416E+02
 2.1691572E+01  1.1612299E+02
 2.1707468E+01  1.1784108E+02
 2.1723366E+01  1.2483693E+02
 2.1739264E+01  1.3452296E+02
 2.1755159E+01  1.3761263E+02
 2.1771057E+01  1.2862102E+02
 2.1786955E+01  1.1577376E+02
 2.1802851E+01  1.1074529E+02
 2.1818748E+01  1.0901977E+02
 2.1834646E+01  1.0853921E+02
 2.1850542E+01  1.0843240E+02
 2.1866440E+01  1.0803575E+02
 2.1882336E+01  1.0867365E+02
 2.1898233E+01  1.0864673E+02
 2.1914131E+01  1.0811871E+02
 2.1930027E+01  1.0789480E+02
 2.1945925E+01  1.0854504E+02
 2.1961823E+01  1.1087361E+02
 2.1977718E+01  1.1076756E+02
 2.1993616E+01  1.0887346E+02
 2.2009514E+01  1.0835427E+02
 2.2025410E+01  1.0936563E+02
 2.2041307E+01  1.0967954E+02
 2.2057205E+01  1.0950440E+02
 2.2073101E+01  1.0811043E+02
 2.2088999E+01  1.0694571E+02
 2.2104897E+01  1.0653131E+02
 2.2120792E+01  1.0716785E+02
 2.2136690E+01  1.0837260E+02
 2.2152588E+01  1.0993662E+02
 2.2168484E+01  1.1144633E+02
 2.2184381E+01  1.1125945E+02
 2.2200277E+01  1.1559181E+02
 2.2216175E+01  1.1672112E+02
 2.2232073E+01  1.1152605E+02
 2.2247969E+01  1.0672141E+02
 2.2263866E+01  1.0755014E+02
 2.2279764E+01  1.1082029E+02
 2.2295660E+01  1.1010780E+02
 2.2311558E+01  1.0738231E+02
 2.2327456E+01  1.0690327E+02
 2.2343351E+01  1.0770992E+02
 2.2359249E+01  1.0803852E+02
 2.2375147E+01  1.0742493E+02
 2.2391043E+01  1.0630018E+02
 2.2406940E+01  1.0544448E+02
 2.2422838E+01  1.0523215E+02
 2.2438734E+01  1.0694528E+02
 2.2454632E+01  1.1296292E+02
 2.2470530E+01  1.1864896E+02
 2.2486425E+01  1.1689447E+02
 2.2502323E+01  1.1052962E+02
 2.2518219E+01  1.0752792E+02
 2.2534117E+01  1.0862915E+02
 2.2550014E+01  1.1125310E+02
 2.2565910E+01  1.1171542E+02
 2.2581808E+01  1.1095676E+02
 2.2597706E+01  1.1337756E+02
 2.2613602E+01  1.1713168E+02
 2.2629499E+01  1.1333273E+02
 2.2645397E+01  1.0920906E+02
 2.2661293E+01  1.0819335E+02
 2.2677191E+01  1.0837333E+02
 2.2693089E+01  1.0896867E+02
 2.2708984E+01  1.1053175E+02
 2.2724882E+01  1.1823350E+02
 2.2740780E+01  1.3109262E+02
 2.2756676E+01  1.2658094E+02
 2.2772573E+01  1.1344818E+02
 2.2788471E+01  1.0846523E+02
 2.2804367E+01  1.0974128E+02
 2.2820265E+01  1.1287394E+02
 2.2836161E+01  1.1224333E+02
 2.2852058E+01  1.0837730E+02
 2.2867956E+01  1.0550645E+02
 2.2883852E+01  1.0493446E+02
 2.2899750E+01  1.0686683E+02
 2.2915648E+01  1.0999265E+02
 2.2931543E+01  1.1034188E+02
 2.2947441E+01  1.0973885E+02
 2.2963339E+01  1.1092751E+02
 2.2979235E+01  1.1291029E+02
 2.2995132E+01  1.2484164E+02
 2.3011030E+01  1.2501376E+02
 2.3026926E+01  1.1995708E+02
 2.3042824E+01  1.1823742E+02
 2.3058722E+01  1.1796920E+02
 2.3074617E+01  1.2214547E+02
 2.3090515E+01  1.2318284E+02
 2.3106413E+01  1.2150804E+02
 2.3122309E+01  1.1657378E+02
 2.3138206E+01  1.1432182E+02
 2.3154102E+01  1.1262862E+02
 2.3170000E+01  1.1276643E+02
 2.3185898E+01  1.1584551E+02
 2.3201794E+01  1.1871798E+02
 2.3217691E+01  1.1655111E+02
 2.3233589E+01  1.1361498E+02
 2.3249485E+01  1.1238271E+02
 2.3265383E+01  1.1320416E+02
 2.3281281E+01  1.1667553E+02
 2.3297176E+01  1.1843085E+02
 2.3313074E+01  1.1439585E+02
 2.3328972E+01  1.0977336E+02
 2.3344868E+01  1.0328674E+02
 2.3360765E+01  9.9791718E+01
 2.3376663E+01  9.8276329E+01
 2.3392559E+01  9.7646606E+01
 2.3408457E+01  9.7438873E+01
 2.3424355E+01  9.7408058E+01
 2.3440250E+01  9.7977943E+01
 2.3456148E+01  9.9551491E+01
 2.3472046E+01  1.0108765E+02
 2.3487942E+01  1.0033198E+02
 2.3503839E+01  1.0001287E+02
 2.3519735E+01  9.9263634E+01
 2.3535633E+01  9.7584061E+01
 2.3551531E+01  9.6379456E+01
 2.3567427E+01  9.6165894E+01
 2.3583324E+01  9.6509666E+01
 2.3599222E+01  9.7490623E+01
 2.3615118E+01  9.8093658E+01
 2.3631016E+01  9.9664490E+01
 2.3646914E+01  1.0084892E+02
 2.3662809E+01  1.0260035E+02
 2.3678707E+01  1.0732269E+02
 2.3694605E+01  1.0622717E+02
 2.3710501E+01  1.0193671E+02
 2.3726398E+01  1.0154968E+02
 2.3742296E+01  1.0095177E+02
 2.3758192E+01  1.0097866E+02
 2.3774090E+01  1.0090028E+02
 2.3789988E+01  1.0046839E+02
 2.3805883E+01  1.0079795E+02
 2.3821781E+01  1.0147594E+02
 2.3837677E+01  9.9758408E+01
 2.3853575E+01  9.5188713E+01
 2.3869473E+01  9.3178429E+01
 2.3885368E+01  9.2437828E+01
 2.3901266E+01  9.1814743E+01
 2.3917164E+01  9.0840607E+01
 2.3933060E+01  9.0368729E+01
 2.3948957E+01  9.0731560E+01
 2.3964855E+01  9.1064812E+01
 2.3980751E+01  9.1099236E+01
 2.3996649E+01  9.1330711E+01
 2.4012547E+01  9.1452667E+01
 2.4028442E+01  9.1360138E+01
 2.4044340E+01  9.0806305E+01
 2.4060238E+01  9.0595207E+01
 2.4076134E+01  9.0205063E+01
 2.4092031E+01  9.0324333E+01
 2.4107929E+01  9.1531456E+01
 2.4123825E+01  9.3292854E+01
 2.4139723E+01  9.5152138E+01
 2.4155619E+01  9.6006004E+01
 2.4171516E+01  9.4016579E+01
 2.4187414E+01  9.2821754E+01
 2.4203310E+01  9.3914551E+01
 2.4219208E+01  9.3096481E+01
 2.4235106E+01  9.1983658E+01
 2.4251001E+01  9.2536865E+01
 2.4266899E+01  9.5233604E+01
 2.4282797E+01  9.8208588E+01
 2.4298693E+01  1.0098193E+02
 2.4314590E+01  9.9668190E+01
 2.4330488E+01  9.7252708E+01
 2.4346384E+01  9.3879555E+01
 2.4362282E+01  9.0749489E+01
 2.4378180E+01  8.8979584E+01
 2.4394075E+01  8.8463669E+01
 2.4409973E+01  8.7361557E+01
 2.4425871E+01  8.8326050E+01
 2.4441767E+01  9.0474922E+01
 2.4457664E+01  9.4542603E+01
 2.4473560E+01  9.3362915E+01
 2.4489458E+01  8.9458801E+01
 2.4505356E+01  8.6477592E+01
 2.4521252E+01  8.4742943E+01
 2.4537149E+01  8.5008766E+01
 2.4553047E+01  8.5153290E+01
 2.4568943E+01  8.4357185E+01
 2.4584841E+01  8.4348137E+01
 2.4600739E+01  8.4855446E+01
 2.4616634E+01  8.4545769E+01
 2.4632532E+01  8.3908989E+01
 2.4648430E+01  8.3583061E+01
 2.4664326E+01  8.3822586E+01
 2.4680223E+01  8.4252968E+01
 2.4696121E+01  8.3296898E+01
 2.4712017E+01  8.2972038E+01
 2.4727915E+01  8.2710022E+01
 2.4743813E+01  8.3007446E+01
 2.4759708E+01  8.3605904E+01
 2.4775606E+01  8.3670670E+01
 2.4791504E+01  8.3210739E+01
 2.4807400E+01  8.3855522E+01
 2.4823298E+01  8.3213821E+01
 2.4839193E+01  8.3032562E+01
 2.4855091E+01  8.3689735E+01
 2.4870989E+01  8.2584106E+01
 2.4886885E+01  8.0479042E+01
 2.4902782E+01  8.0231384E+01
 2.4918680E+01  8.0368332E+01
 2.4934576E+01  8.0764488E+01
 2.4950474E+01  8.1720779E+01
 2.4966372E+01  8.5333084E+01
 2.4982267E+01  8.9950035E+01
 2.4998165E+01  8.7551132E+01
 2.5014063E+01  8.3687042E+01
 2.5029959E+01  8.3157532E+01
 2.5045856E+01  8.3590820E+01
 2.5061754E+01  8.3707901E+01
 2.5077650E+01  8.4335167E+01
 2.5093548E+01  8.4513168E+01
 2.5109446E+01  8.3239990E+01
 2.5125341E+01  8.2437416E+01
 2.5141239E+01  8.2946503E+01
 2.5157135E+01  8.3252678E+01
 2.5173033E+01  8.2923737E+01
 2.5188931E+01  8.2839127E+01
 2.5204826E+01  8.2759117E+01
 2.5220724E+01  8.3470406E+01
 2.5236622E+01  8.5361526E+01
 2.5252518E+01  8.7289383E+01
 2.5268415E+01  8.5241646E+01
 2.5284313E+01  8.1370781E+01
 2.5300209E+01  7.8727753E+01
 2.5316107E+01  7.7734329E+01
 2.5332005E+01  7.7660004E+01
 2.5347900E+01  7.8558044E+01
 2.5363798E+01  7.9124474E+01
 2.5379696E+01  7.9902176E+01
 2.5395592E+01  7.9812294E+01
 2.5411489E+01  7.8492943E+01
 2.5427387E+01  7.8881203E+01
 2.5443283E+01  7.7548134E+01
 2.5459181E+01  7.7173592E+01
 2.5475077E+01  7.7169777E+01
 2.5490974E+01  7.7074738E+01
 2.5506872E+01  7.7190933E+01
 2.5522768E+01  7.7986565E+01
 2.5538666E+01  7.9057755E+01
 2.5554564E+01  7.9557861E+01
 2.5570459E+01  8.0104347E+01
 2.5586357E+01  8.1941246E+01
 2.5602255E+01  8.2874016E+01
 2.5618151E+01  8.3812271E+01
 2.5634048E+01  8.3691925E+01
 2.5649946E+01  8.2530510E+01
 2.5665842E+01  8.1898560E+01
 2.5681740E+01  8.2835205E+01
 2.5697638E+01  8.4914467E+01
 2.5713533E+01  8.5811668E+01
 2.5729431E+01  7.8388115E+01
 2.5745329E+01  7.4112160E+01
 2.5761225E+01  7.2377945E+01
 2.5777122E+01  7.1322220E+01
 2.5793018E+01  7.0687584E+01
 2.5808916E+01  7.0716850E+01
 2.5824814E+01  7.0375099E+01
 2.5840710E+01  6.9889008E+01
 2.5856607E+01  6.9617516E+01
 2.5872505E+01  6.9389061E+01
 2.5888401E+01  6.9369766E+01
 2.5904299E+01  6.9261230E+01
 2.5920197E+01  6.9409866E+01
 2.5936092E+01  6.9337585E+01
 2.5951990E+01  6.8901787E+01
 2.5967888E+01  6.8884926E+01
 2.5983784E+01  6.9924004E+01
 2.5999681E+01  7.1132515E+01
 2.6015579E+01  7.0862175E+01
 2.6031475E+01  6.9500435E+01
 2.6047373E+01  6.9292450E+01
 2.6063271E+01  6.8807404E+01
 2.6079166E+01  6.8265953E+01
 2.6095064E+01  6.8279694E+01
 2.6110960E+01  6.8995110E+01
 2.6126858E+01  6.9588326E+01
 2.6142756E+01  7.0168701E+01
 2.6158651E+01  7.0004745E+01
 2.6174549E+01  7.0711128E+01
 2.6190447E+01  7.3597069E+01
 2.6206343E+01  7.5414024E+01
 2.6222240E+01  7.7257187E+01
 2.6238138E+01  7.8744530E+01
 2.6254034E+01  8.1332970E+01
 2.6269932E+01  8.5805099E+01
 2.6285830E+01  8.6180656E+01
 2.6301725E+01  8.6658653E+01
 2.6317623E+01  8.7896423E+01
 2.6333521E+01  9.0099106E+01
 2.6349417E+01  8.9421310E+01
 2.6365314E+01  8.8377434E+01
 2.6381212E+01  8.9839317E+01
 2.6397108E+01  9.2587563E+01
 2.6413006E+01  9.4688507E+01
 2.6428904E+01  9.6663986E+01
 2.6444799E+01  9.5505127E+01
 2.6460697E+01  9.4320724E+01
 2.6476593E+01  9.5613747E+01
 2.6492491E+01  9.6401703E+01
 2.6508389E+01  9.7694275E+01
 2.6524284E+01  9.9558105E+01
 2.6540182E+01  1.0090899E+02
 2.6556080E+01  1.0079755E+02
 2.6571976E+01  1.0006859E+02
 2.6587873E+01  1.0025082E+02
 2.6603771E+01  1.0166695E+02
 2.6619667E+01  1.0218863E+02
 2.6635565E+01  1.0185895E+02
 2.6651463E+01  1.0207165E+02
 2.6667358E+01  1.0211856E+02
 2.6683256E+01  1.0349774E+02
 2.6699154E+01  1.0688422E+02
 2.6715050E+01  1.1069205E+02
 2.6730947E+01  1.1110382E+02
 2.6746845E+01  1.0918689E+02
 2.6762741E+01  1.0941589E+02
 2.6778639E+01  1.1103161E+02
 2.6794535E+01  1.1340357E+02
 2.6810432E+01  1.1356239E+02
 2.6826330E+01  1.1438414E+02
 2.6842226E+01  1.1764050E+02
 2.6858124E+01  1.1854702E+02
 2.6874022E+01  1.1777610E+02
 2.6889917E+01  1.2052986E+02
 2.6905815E+01  1.2576055E+02
 2.6921713E+01  1.3155872E+02
 2.6937609E+01  1.3208206E+02
 2.6953506E+01  1.2956342E+02
 2.6969404E+01  1.2226312E+02
 2.6985300E+01  1.1848811E+02
 2.7001198E+01  1.1727174E+02
 2.7017096E+01  1.1794301E+02
 2.7032991E+01  1.2157736E+02
 2.7048889E+01  1.2031212E+02
 2.7064787E+01  1.1964826E+02
 2.7080683E+01  1.2159466E+02
 2.7096581E+01  1.2276546E+02
 2.7112476E+01  1.2116793E+02
 2.7128374E+01  1.2143694E+02
 2.7144272E+01  1.2290418E+02
 2.7160168E+01  1.2464774E+02
 2.7176065E+01  1.2607821E+02
 2.7191963E+01  1.2846208E+02
 2.7207859E+01  1.2811102E+02
 2.7223757E+01  1.2801459E+02
 2.7239655E+01  1.3041287E+02
 2.7255550E+01  1.3305170E+02
 2.7271448E+01  1.3364529E+02
 2.7287346E+01  1.3334201E+02
 2.7303242E+01  1.3562914E+02
 2.7319139E+01  1.4045193E+02
 2.7335037E+01  1.4109695E+02
 2.7350933E+01  1.3498486E+02
 2.7366831E+01  1.3042731E+02
 2.7382729E+01  1.2992986E+02
 2.7398624E+01  1.3022748E+02
 2.7414522E+01  1.2957747E+02
 2.7430418E+01  1.3044392E+02
 2.7446316E+01  1.3196725E+02
 2.7462214E+01  1.3271741E+02
 2.7478109E+01  1.2947775E+02
 2.7494007E+01  1.2654851E+02
 2.7509905E+01  1.2455603E+02
 2.7525801E+01  1.2412282E+02
 2.7541698E+01  1.2478471E+02
 2.7557596E+01  1.2661265E+02
 2.7573492E+01  1.2728430E+02
 2.7589390E+01  1.2710892E+02
 2.7605288E+01  1.2823160E+02
 2.7621183E+01  1.2933894E+02
 2.7637081E+01  1.3054971E+02
 2.7652979E+01  1.3019359E+02
 2.7668875E+01  1.2961034E+02
 2.7684772E+01  1.2883392E+02
 2.7700670E+01  1.2939391E+02
 2.7716566E+01  1.2851886E+02
 2.7732464E+01  1.2582983E+02
 2.7748362E+01  1.2388401E+02
 2.7764257E+01  1.2613250E+02
 2.7780155E+01  1.2680522E+02
 2.7796051E+01  1.2361001E+02
 2.7811949E+01  1.2187443E+02
 2.7827847E+01  1.2159246E+02
 2.7843742E+01  1.2150367E+02
 2.7859640E+01  1.2255654E+02
 2.7875538E+01  1.2615086E+02
 2.7891434E+01  1.2720625E+02
 2.7907331E+01  1.2416619E+02
 2.7923229E+01  1.2222614E+02
 2.7939125E+01  1.2207909E+02
 2.7955023E+01  1.2314242E+02
 2.7970921E+01  1.2491909E+02
 2.7986816E+01  1.2770859E+02
 2.8002714E+01  1.2777348E+02
 2.8018612E+01  1.2643322E+02
 2.8034508E+01  1.2808835E+02
 2.8050406E+01  1.3468291E+02
 2.8066303E+01  1.4391316E+02
 2.8082199E+01  1.3693671E+02
 2.8098097E+01  1.2775360E+02
 2.8113993E+01  1.2321627E+02
 2.8129890E+01  1.2117162E+02
 2.8145788E+01  1.1942072E+02
 2.8161684E+01  1.1785046E+02
 2.8177582E+01  1.1694250E+02
 2.8193480E+01  1.1751322E+02
 2.8209375E+01  1.1869252E+02
 2.8225273E+01  1.1903874E+02
 2.8241171E+01  1.1823946E+02
 2.8257067E+01  1.1766563E+02
 2.8272964E+01  1.1733438E+02
 2.8288862E+01  1.1710046E+02
 2.8304758E+01  1.1783473E+02
 2.8320656E+01  1.1914440E+02
 2.8336554E+01  1.2176180E+02
 2.8352449E+01  1.2640858E+02
 2.8368347E+01  1.2879254E+02
 2.8384245E+01  1.2864696E+02
 2.8400141E+01  1.2677483E+02
 2.8416039E+01  1.2663458E+02
 2.8431934E+01  1.2461212E+02
 2.8447832E+01  1.2018398E+02
 2.8463730E+01  1.1352843E+02
 2.8479626E+01  1.0910135E+02
 2.8495523E+01  1.0632741E+02
 2.8511421E+01  1.0488940E+02
 2.8527317E+01  1.0266527E+02
 2.8543215E+01  1.0094160E+02
 2.8559113E+01  1.0017453E+02
 2.8575008E+01  1.0058768E+02
 2.8590906E+01  1.0087351E+02
 2.8606804E+01  1.0009698E+02
 2.8622700E+01  1.0132296E+02
 2.8638597E+01  1.0376133E+02
 2.8654495E+01  9.7953339E+01
 2.8670391E+01  9.4336128E+01
 2.8686289E+01  9.3786499E+01
 2.8702187E+01  9.2378181E+01
 2.8718082E+01  9.1096245E+01
 2.8733980E+01  9.0600861E+01
 2.8749876E+01  9.0789627E+01
 2.8765774E+01  9.0335022E+01
 2.8781672E+01  8.9643837E+01
 2.8797567E+01  8.6687973E+01
 2.8813465E+01  8.3818314E+01
 2.8829363E+01  8.0642990E+01
 2.8845259E+01  7.8266632E+01
 2.8861156E+01  7.7201485E+01
 2.8877054E+01  7.5091141E+01
 2.8892950E+01  7.3290932E+01
 2.8908848E+01  7.1577797E+01
 2.8924746E+01  6.9615990E+01
 2.8940641E+01  6.8457512E+01
 2.8956539E+01  6.6970200E+01
 2.8972437E+01  6.5634590E+01
 2.8988333E+01  6.3989658E+01
 2.9004230E+01  6.2120998E+01
 2.9020128E+01  6.0273220E+01
 2.9036024E+01  5.8466579E+01
 2.9051922E+01  5.6189739E+01
 2.9067818E+01  5.3942238E+01
 2.9083715E+01  5.1218441E+01
 2.9099613E+01  4.9060692E+01
 2.9115509E+01  4.7247944E+01
 2.9131407E+01  4.5012650E+01
 2.9147305E+01  4.2573139E+01
 2.9163200E+01  3.9413296E+01
 2.9179098E+01  3.5819767E+01
 2.9194996E+01  3.1531290E+01
 2.9210892E+01  2.7122967E+01
 2.9226789E+01  2.1922956E+01
 2.9242687E+01  1.4281037E+01
 2.9258583E+01  4.7249084E+00
 2.9274481E+01  3.0298075E-01
 2.9290379E+01  0.0000000E+00
 2.9306274E+01  0.0000000E+00
 2.9322172E+01  0.0000000E+00
 2.9338070E+01  0.0000000E+00
 2.9353966E+01  0.0000000E+00
 2.9369864E+01  0.0000000E+00
 2.9385761E+01  0.0000000E+00
 2.9401657E+01  0.0000000E+00
 2.9417555E+01  0.0000000E+00
 2.9433451E+01  0.0000000E+00
 2.9449348E+01  0.0000000E+00
 2.9465246E+01  0.0000000E+00
 2.9481142E+01  0.0000000E+00
 2.9497040E+01  0.0000000E+00
 2.9512938E+01  0.0000000E+00
 2.9528833E+01  0.0000000E+00
 2.9544731E+01  0.0000000E+00
 2.9560629E+01  0.0000000E+00
 2.9576525E+01  0.0000000E+00
 2.9592422E+01  0.0000000E+00
 2.9608320E+01  0.0000000E+00
 2.9624216E+01  0.0000000E+00
 2.9640114E+01  0.0000000E+00
 2.9656012E+01  0.0000000E+00
 2.9671907E+01  0.0000000E+00
 2.9687805E+01  0.0000000E+00
 2.9703703E+01  0.0000000E+00
 2.9719599E+01  0.0000000E+00
 2.9735497E+01  0.0000000E+00
 2.9751392E+01  0.0000000E+00
 2.9767290E+01  0.0000000E+00
 2.9783188E+01  0.0000000E+00
 2.9799084E+01  0.0000000E+00
 2.9814981E+01  0.0000000E+00
 2.9830879E+01  0.0000000E+00
 2.9846775E+01  0.0000000E+00
 2.9862673E+01  0.0000000E+00
 2.9878571E+01  0.0000000E+00
 2.9894466E+01  0.0000000E+00
 2.9910364E+01  0.0000000E+00
 2.9926262E+01  0.0000000E+00
 2.9942158E+01  0.0000000E+00
 2.9958055E+01  0.0000000E+00
 2.9973953E+01  0.0000000E+00
 2.9989849E+01  0.0000000E+00
 3.0005747E+01  0.0000000E+00
 3.0021645E+01  0.0000000E+00
 3.0037540E+01  0.0000000E+00
 3.0053438E+01  0.0000000E+00
 3.0069334E+01  0.0000000E+00
 3.0085232E+01  0.0000000E+00
 3.0101130E+01  0.0000000E+00
 3.0117025E+01  0.0000000E+00
 3.0132923E+01  0.0000000E+00
 3.0148821E+01  0.0000000E+00
 3.0164717E+01  0.0000000E+00
 3.0180614E+01  0.0000000E+00
 3.0196512E+01  0.0000000E+00
 3.0212408E+01  0.0000000E+00
 3.0228306E+01  0.0000000E+00
 3.0244204E+01  0.0000000E+00
 3.0260099E+01  0.0000000E+00
 3.0275997E+01  0.0000000E+00
 3.0291895E+01  0.0000000E+00
 3.0307791E+01  0.0000000E+00
 3.0323689E+01  0.0000000E+00
 3.0339586E+01  0.0000000E+00
 3.0355482E+01  0.0000000E+00
 3.0371380E+01  0.0000000E+00
 3.0387276E+01  0.0000000E+00
 3.0403173E+01  0.0000000E+00
 3.0419071E+01  0.0000000E+00
 3.0434967E+01  0.0000000E+00
 3.0450865E+01  0.0000000E+00
 3.0466763E+01  0.0000000E+00
 3.0482658E+01  0.0000000E+00
 3.0498556E+01  0.0000000E+00
 3.0514454E+01  0.0000000E+00
 3.0530350E+01  0.0000000E+00
 3.0546247E+01  0.0000000E+00
 3.0562145E+01  0.0000000E+00
 3.0578041E+01  0.0000000E+00
 3.0593939E+01  0.0000000E+00
 3.0609837E+01  0.0000000E+00
 3.0625732E+01  0.0000000E+00
 3.0641630E+01  0.0000000E+00
 3.0657528E+01  0.0000000E+00
 3.0673424E+01  0.0000000E+00
 3.0689322E+01  0.0000000E+00
 3.0705219E+01  0.0000000E+00
 3.0721115E+01  0.0000000E+00
 3.0737013E+01  0.0000000E+00
 3.0752909E+01  0.0000000E+00
 3.0768806E+01  0.0000000E+00
 3.0784704E+01  0.0000000E+00
 3.0800600E+01  0.0000000E+00
 3.0816498E+01  0.0000000E+00
 3.0832396E+01  0.0000000E+00
 3.0848291E+01  0.0000000E+00
 3.0864189E+01  0.0000000E+00
 3.0880087E+01  0.0000000E+00
 3.0895983E+01  0.0000000E+00
 3.0911880E+01  0.0000000E+00
 3.0927778E+01  0.0000000E+00
 3.0943674E+01  0.0000000E+00
 3.0959572E+01  0.0000000E+00
 3.0975470E+01  0.0000000E+00
 3.0991365E+01  0.0000000E+00
 3.1007263E+01  0.0000000E+00
 3.1023161E+01  0.0000000E+00
 3.1039057E+01  0.0000000E+00
 3.1054955E+01  0.0000000E+00
 3.1070850E+01  0.0000000E+00
 3.1086748E+01  0.0000000E+00
 3.1102646E+01  0.0000000E+00
 3.1118542E+01  0.0000000E+00
 3.1134439E+01  0.0000000E+00
 3.1150337E+01  0.0000000E+00
 3.1166233E+01  0.0000000E+00
 3.1182131E+01  0.0000000E+00
 3.1198029E+01  0.0000000E+00
 3.1213924E+01  0.0000000E+00
 3.1229822E+01  0.0000000E+00
 3.1245720E+01  0.0000000E+00
 3.1261616E+01  0.0000000E+00
 3.1277514E+01  0.0000000E+00
 3.1293411E+01  0.0000000E+00
 3.1309307E+01  0.0000000E+00
 3.1325205E+01  0.0000000E+00
 3.1341103E+01  0.0000000E+00
 3.1356998E+01  0.0000000E+00
 3.1372896E+01  0.0000000E+00
 3.1388792E+01  0.0000000E+00
 3.1404690E+01  0.0000000E+00
 3.1420588E+01  0.0000000E+00
 3.1436483E+01  0.0000000E+00
 3.1452381E+01  0.0000000E+00
 3.1468279E+01  0.0000000E+00
 3.1484175E+01  0.0000000E+00
 3.1500072E+01  0.0000000E+00
 3.1515970E+01  0.0000000E+00
 3.1531866E+01  0.0000000E+00
 3.1547764E+01  0.0000000E+00
 3.1563662E+01  0.0000000E+00
 3.1579557E+01  0.0000000E+00
 3.1595455E+01  0.0000000E+00
 3.1611353E+01  0.0000000E+00
 3.1627249E+01  0.0000000E+00
 3.1643147E+01  0.0000000E+00
 3.1659044E+01  0.0000000E+00
 3.1674940E+01  0.0000000E+00
 3.1690838E+01  0.0000000E+00
 3.1706734E+01  0.0000000E+00
 3.1722631E+01  0.0000000E+00
 3.1738529E+01  0.0000000E+00
 3.1754425E+01  0.0000000E+00
 3.1770323E+01  0.0000000E+00
 3.1786221E+01  0.0000000E+00
 3.1802116E+01  0.0000000E+00
 3.1818014E+01  0.0000000E+00
 3.1833912E+01  0.0000000E+00
 3.1849808E+01  0.0000000E+00
 3.1865705E+01  0.0000000E+00
 3.1881603E+01  0.0000000E+00
 3.1897499E+01  0.0000000E+00
 3.1913397E+01  0.0000000E+00
 3.1929295E+01  0.0000000E+00
 3.1945190E+01  0.0000000E+00
 3.1961088E+01  0.0000000E+00
 3.1976986E+01  0.0000000E+00
 3.1992882E+01  0.0000000E+00
 3.2008778E+01  0.0000000E+00
 3.2024677E+01  0.0000000E+00
 3.2040573E+01  0.0000000E+00
 3.2056469E+01  0.0000000E+00
 3.2072369E+01  0.0000000E+00
 3.2088264E+01  0.0000000E+00
 3.2104160E+01  0.0000000E+00
 3.2120060E+01  0.0000000E+00
 3.2135956E+01  0.0000000E+00
 3.2151852E+01  0.0000000E+00
 3.2167751E+01  0.0000000E+00
 3.2183647E+01  0.0000000E+00
 3.2199543E+01  0.0000000E+00
 3.2215443E+01  0.0000000E+00
 3.2231339E+01  0.0000000E+00
 3.2247234E+01  0.0000000E+00
 3.2263134E+01  0.0000000E+00
 3.2279030E+01  0.0000000E+00
 3.2294926E+01  0.0000000E+00
 3.2310825E+01  0.0000000E+00
 3.2326721E+01  0.0000000E+00
 3.2342617E+01  0.0000000E+00
 3.2358517E+01  0.0000000E+00
 3.2374413E+01  0.0000000E+00
 3.2390308E+01  0.0000000E+00
 3.2406208E+01  0.0000000E+00
 3.2422104E+01  0.0000000E+00
 3.2438000E+01  0.0000000E+00
 3.2453899E+01  0.0000000E+00
 3.2469795E+01  0.0000000E+00
 3.2485691E+01  0.0000000E+00
 3.2501591E+01  0.0000000E+00
 3.2517487E+01  0.0000000E+00
 3.2533382E+01  0.0000000E+00
 3.2549278E+01  0.0000000E+00
 3.2565178E+01  0.0000000E+00
 3.2581074E+01  0.0000000E+00
 3.2596970E+01  0.0000000E+00
 3.2612869E+01  0.0000000E+00
 3.2628765E+01  0.0000000E+00
 3.2644661E+01  0.0000000E+00
 3.2660561E+01  0.0000000E+00
 3.2676456E+01  0.0000000E+00
 3.2692352E+01  0.0000000E+00
 3.2708252E+01  0.0000000E+00
 3.2724148E+01  0.0000000E+00
 3.2740044E+01  0.0000000E+00
 3.2755943E+01  0.0000000E+00
 3.2771839E+01  0.0000000E+00
 3.2787735E+01  0.0000000E+00
 3.2803635E+01  0.0000000E+00
 3.2819530E+01  0.0000000E+00
 3.2835426E+01  0.0000000E+00
 3.2851326E+01  0.0000000E+00
 3.2867222E+01  0.0000000E+00
 3.2883118E+01  0.0000000E+00
 3.2899017E+01  0.0000000E+00
 3.2914913E+01  0.0000000E+00
 3.2930809E+01  0.0000000E+00
 3.2946709E+01  0.0000000E+00
 3.2962605E+01  0.0000000E+00
 3.2978500E+01  0.0000000E+00
 3.2994400E+01  0.0000000E+00
 3.3010296E+01  0.0000000E+00
 3.3026192E+01  0.0000000E+00
 3.3042091E+01  0.0000000E+00
 3.3057987E+01  0.0000000E+00
 3.3073883E+01  0.0000000E+00
 3.3089783E+01  0.0000000E+00
 3.3105679E+01  0.0000000E+00
 3.3121574E+01  0.0000000E+00
 3.3137474E+01  0.0000000E+00
 3.3153370E+01  0.0000000E+00
 3.3169266E+01  0.0000000E+00
 3.3185162E+01  0.0000000E+00
 3.3201061E+01  0.0000000E+00
 3.3216957E+01  0.0000000E+00
 3.3232853E+01  0.0000000E+00
 3.3248753E+01  0.0000000E+00
 3.3264648E+01  0.0000000E+00
 3.3280544E+01  0.0000000E+00
 3.3296444E+01  0.0000000E+00
 3.3312340E+01  0.0000000E+00
 3.3328236E+01  0.0000000E+00
 3.3344135E+01  0.0000000E+00
 3.3360031E+01  0.0000000E+00
 3.3375927E+01  0.0000000E+00
 3.3391827E+01  0.0000000E+00
 3.3407722E+01  0.0000000E+00
 3.3423618E+01  0.0000000E+00
 3.3439518E+01  0.0000000E+00
 3.3455414E+01  0.0000000E+00
 3.3471310E+01  0.0000000E+00
 3.3487209E+01  0.0000000E+00
 3.3503105E+01  0.0000000E+00
 3.3519001E+01  0.0000000E+00
 3.3534901E+01  0.0000000E+00
 3.3550797E+01  0.0000000E+00
 3.3566692E+01  0.0000000E+00
 3.3582592E+01  0.0000000E+00
 3.3598488E+01  0.0000000E+00
 3.3614384E+01  0.0000000E+00
 3.3630283E+01  0.0000000E+00
 3.3646179E+01  0.0000000E+00
 3.3662075E+01  0.0000000E+00
 3.3677975E+01  0.0000000E+00
 3.3693871E+01  0.0000000E+00
 3.3709766E+01  0.0000000E+00
 3.3725666E+01  0.0000000E+00
 3.3741562E+01  0.0000000E+00
 3.3757458E+01  0.0000000E+00
 3.3773357E+01  0.0000000E+00
 3.3789253E+01  0.0000000E+00
 3.3805149E+01  0.0000000E+00
 3.3821049E+01  0.0000000E+00
 3.3836945E+01  0.0000000E+00
 3.3852840E+01  0.0000000E+00
 3.3868736E+01  0.0000000E+00
 3.3884636E+01  0.0000000E+00
 3.3900532E+01  0.0000000E+00
 3.3916428E+01  0.0000000E+00
 3.3932327E+01  0.0000000E+00
 3.3948223E+01  0.0000000E+00
 3.3964119E+01  0.0000000E+00
 3.3980019E+01  0.0000000E+00
 3.3995914E+01  0.0000000E+00
 3.4011810E+01  0.0000000E+00
 3.4027710E+01  0.0000000E+00
 3.4043606E+01  0.0000000E+00
 3.4059502E+01  0.0000000E+00
 3.4075401E+01  0.0000000E+00
 3.4091297E+01  0.0000000E+00
 3.4107193E+01  0.0000000E+00
 3.4123093E+01  0.0000000E+00
 3.4138988E+01  0.0000000E+00
 3.4154884E+01  0.0000000E+00
 3.4170784E+01  0.0000000E+00
 3.4186680E+01  0.0000000E+00
 3.4202576E+01  0.0000000E+00
 3.4218475E+01  0.0000000E+00
 3.4234371E+01  0.0000000E+00
 3.4250267E+01  0.0000000E+00
 3.4266167E+01  0.0000000E+00
 3.4282063E+01  0.0000000E+00
 3.4297958E+01  0.0000000E+00
 3.4313858E+01  0.0000000E+00
 3.4329754E+01  0.0000000E+00
 3.4345650E+01  0.0000000E+00
 3.4361549E+01  0.0000000E+00
 3.4377445E+01  0.0000000E+00
 3.4393341E+01  0.0000000E+00
 3.4409241E+01  0.0000000E+00
 3.4425137E+01  0.0000000E+00
 3.4441032E+01  0.0000000E+00
 3.4456932E+01  0.0000000E+00
 3.4472828E+01  0.0000000E+00
 3.4488724E+01  0.0000000E+00
 3.4504620E+01  0.0000000E+00
 3.4520519E+01  0.0000000E+00
 3.4536415E+01  0.0000000E+00
 3.4552311E+01  0.0000000E+00
 3.4568211E+01  0.0000000E+00
 3.4584106E+01  0.0000000E+00
 3.4600002E+01  0.0000000E+00
 3.4615902E+01  0.0000000E+00
 3.4631798E+01  0.0000000E+00
 3.4647694E+01  0.0000000E+00
 3.4663593E+01  0.0000000E+00
 3.4679489E+01  0.0000000E+00
 3.4695385E+01  0.0000000E+00
 3.4711285E+01  0.0000000E+00
 3.4727180E+01  0.0000000E+00
 3.4743076E+01  0.0000000E+00
 3.4758976E+01  0.0000000E+00
 3.4774872E+01  0.0000000E+00
 3.4790768E+01  0.0000000E+00
