




       5.801786      -1.027710
       5.819394      -0.335693
       5.837002      -0.308594
       5.854609      -0.719421
       5.872218      -1.043579
       5.889825      -0.258362
       5.907433      -0.664429
       5.925041      -1.135071
       5.942649      -1.677002
       5.960257      -0.926575
       5.977865      -0.806458
       5.995472      -0.639648
       6.013080      -1.642395
       6.030688      -1.386414
       6.048296      -1.848267
       6.065904      -1.328308
       6.083512      -2.288452
       6.101120      -1.265442
       6.118727      -1.075684
       6.136335       1.689209
       6.153943       7.126221
       6.171551      19.001221
       6.189159      21.250732
       6.206767      11.493286
       6.224374       1.421265
       6.241982      -1.471863
       6.259590      -1.245300
       6.277198      -0.648865
       6.294806      -0.592529
       6.312414       0.148987
       6.330021       0.379822
       6.347630      -0.026733
       6.365237      -0.973206
       6.382845      -0.826172
       6.400453      -0.688660
       6.418061      -1.169861
       6.435668      -0.908508
       6.453277      -0.873596
       6.470884      -0.651978
       6.488492      -0.209656
       6.506100      -1.305786
       6.523708      -1.018372
       6.541316      -0.879150
       6.558924       0.792419
       6.576531       5.280334
       6.594139      16.003784
       6.611747      23.556213
       6.629355      10.011841
       6.646963       2.111938
       6.664571       0.435303
       6.682178       0.085876
       6.699786      -0.591919
       6.717394      -1.815674
       6.735002      -1.674805
       6.752610      -0.994080
       6.770218      -1.169922
       6.787826      -0.717957
       6.805433      -1.082886
       6.823041      -0.358032
       6.840649      -1.138550
       6.858257      -0.595825
       6.875865       2.241699
       6.893473       4.768433
       6.911080       3.050842
       6.928689      -0.474243
       6.946296      -1.049133
       6.963904      -1.137390
       6.981512      -0.926514
       6.999120      -1.508240
       7.016727      -1.012939
       7.034336      -1.558899
       7.051943      -1.986938
       7.069551      -0.976807
       7.087159       1.024780
       7.104767       9.924255
       7.122375      37.231934
       7.139983      57.959290
       7.157590      39.208923
       7.175198      12.650818
       7.192806       1.692749
       7.210414      -1.429504
       7.228022      -1.178223
       7.245630      -0.426636
       7.263237      -0.107666
       7.280845       0.257813
       7.298453      -0.489624
       7.316061      -1.453369
       7.333669      -1.277222
       7.351277      -0.544983
       7.368885      -0.835388
       7.386492      -2.170959
       7.404100      -1.601318
       7.421708      -1.577332
       7.439316      -0.663208
       7.456924      -0.875916
       7.474532      -1.314087
       7.492139      -1.552734
       7.509748      -1.635803
       7.527355      -1.650513
       7.544963      -0.328796
       7.562571      -0.460022
       7.580179      -0.180786
       7.597786      -1.123657
       7.615395      -1.116577
       7.633002      -1.476257
       7.650610      -0.447754
       7.668218      -0.716003
       7.685826      -0.510681
       7.703434      -0.714417
       7.721042      -1.729309
       7.738649      -2.239197
       7.756257      -3.128723
       7.773865      -2.411926
       7.791473      -1.809753
       7.809081      -1.172791
       7.826689      -0.300171
       7.844296       0.471558
       7.861904       0.800842
       7.879512       1.683655
       7.897120       2.568726
       7.914728       3.734802
       7.932336       4.207336
       7.949944       7.060120
       7.967551      16.105835
       7.985159      28.990967
       8.002767      27.696716
       8.020375      13.292542
       8.037983       4.505493
       8.055591       0.691040
       8.073198      -0.074036
       8.090806       0.676392
       8.108414       1.728882
       8.126022       1.420349
       8.143630       0.734253
       8.161238       0.613525
       8.178845       0.576965
       8.196453      -0.003784
       8.214061       0.746826
       8.231669       0.967407
       8.249277       1.770752
       8.266885       1.562012
       8.284492       0.971680
       8.302100      -0.424011
       8.319708       0.124817
       8.337317       0.173523
       8.354924      -0.865723
       8.372532      -0.795837
       8.390140      -0.846069
       8.407747      -0.002014
       8.425355       0.049438
       8.442964      -0.949280
       8.460571      -1.160767
       8.478179      -0.979370
       8.495787      -0.711365
       8.513394       0.098206
       8.531002       0.047363
       8.548611      -1.026306
       8.566218      -1.911194
       8.583826      -3.517334
       8.601434      -3.467224
       8.619041      -2.825378
       8.636649      -2.405762
       8.654258      -1.467957
       8.671865      -1.067566
       8.689473      12.766418
       8.707081      69.329163
       8.724689     131.106140
       8.742297     177.056152
       8.759905     172.202881
       8.777513      76.941223
       8.795120      20.693176
       8.812728       4.863953
       8.830336       1.309875
       8.847944      -0.155823
       8.865552      -0.556274
       8.883160      -1.103638
       8.900767       0.479126
       8.918375       2.587585
       8.935983       3.396973
       8.953591       3.949890
       8.971199       9.234009
       8.988807      22.127991
       9.006414      62.283203
       9.024022     119.588806
       9.041630      84.080627
       9.059238      25.120972
       9.076846       7.201782
       9.094454       2.599426
       9.112062       0.511475
       9.129669       0.969177
       9.147277       0.930359
       9.164886       0.357849
       9.182493       0.210327
       9.200101       2.186218
       9.217709       2.836304
       9.235316       2.493042
       9.252924       1.290283
       9.270533       1.218018
       9.288140       0.997070
       9.305748      -1.162415
       9.323356      -0.605225
       9.340963       0.275208
       9.358571       1.398376
       9.376180       1.899170
       9.393787       0.700562
       9.411395      -0.173523
       9.429003       0.015381
       9.446610       0.486877
       9.464218       0.072449
       9.481827       1.065857
       9.499434       1.346863
       9.517042       5.117798
       9.534650      16.192322
       9.552258      25.966919
       9.569865      15.739624
       9.587474       5.170776
       9.605082       1.543945
       9.622689       1.837585
       9.640297       2.616089
       9.657905       2.554810
       9.675512       0.862549
       9.693121       0.727173
       9.710729       0.438843
       9.728336      -0.016724
       9.745944      -0.115417
       9.763552      -0.286011
       9.781159      -0.639465
       9.798768      -0.734436
       9.816376      -0.502136
       9.833983       0.311096
       9.851591       0.269348
       9.869199       0.117554
       9.886806       0.250366
       9.904415       0.443726
       9.922023       0.031982
       9.939631      -0.721252
       9.957238      -1.082397
       9.974846      -0.845398
       9.992454       0.143555
      10.010062       0.179016
      10.027670       0.314880
      10.045278       1.332886
      10.062885       6.979370
      10.080493      25.946533
      10.098101      49.010986
      10.115709      37.979980
      10.133317      16.949097
      10.150925       5.303284
      10.168532       1.737671
      10.186140       1.172791
      10.203748      -0.491150
      10.221356       0.243591
      10.238964       0.032410
      10.256572      -0.216919
      10.274179      -0.408203
      10.291787      -0.366089
      10.309395       0.262146
      10.327003       1.511597
      10.344611       4.874268
      10.362219      11.149963
      10.379827      28.433777
      10.397434      91.590942
      10.415042     184.764282
      10.432651     191.199280
      10.450258     128.722961
      10.467866      31.790466
      10.485474       9.106873
      10.503081       4.294922
      10.520689       2.984070
      10.538298       2.729187
      10.555905       1.795654
      10.573513       2.198059
      10.591121       0.946228
      10.608728       1.234985
      10.626336       0.763184
      10.643945       0.966003
      10.661552       0.120483
      10.679160       0.304321
      10.696768      -0.483582
      10.714375       0.503784
      10.731983       0.202576
      10.749592       1.391724
      10.767200       1.182739
      10.784807       1.619568
      10.802415       0.580811
      10.820023       1.032349
      10.837630       0.193481
      10.855239      -0.546021
      10.872847      -0.445618
      10.890454       0.653442
      10.908062       0.540283
      10.925670       0.947021
      10.943277      -0.101929
      10.960886       0.831421
      10.978494       1.043030
      10.996101       1.583435
      11.013709      -0.202271
      11.031317       0.296021
      11.048924       0.084839
      11.066533       0.560364
      11.084141       0.133667
      11.101748       0.324341
      11.119356       0.070313
      11.136964      -0.414978
      11.154572      -0.521118
      11.172180       0.416260
      11.189788      -0.145020
      11.207396       0.107605
      11.225003      -0.415161
      11.242611       0.059509
      11.260219       0.338196
      11.277827      -0.261963
      11.295435      -0.695862
      11.313043      -0.636230
      11.330650      -1.070679
      11.348258      -1.690552
      11.365866      -1.376221
      11.383474      -0.852844
      11.401082       1.063354
      11.418690       2.834106
      11.436297       6.029846
      11.453905       9.973389
      11.471513      11.692139
      11.489121      13.138916
      11.506729      11.166199
      11.524337       7.097473
      11.541945       1.581848
      11.559552      -0.184937
      11.577160       1.746155
      11.594769      11.460449
      11.612376      24.050110
      11.629984      22.117676
      11.647592       8.176941
      11.665199       0.833740
      11.682807      -0.558838
      11.700416      -0.644714
      11.718023       0.261169
      11.735631       1.142090
      11.753239       0.095459
      11.770846       0.082520
      11.788454       0.743164
      11.806063       4.370667
      11.823670      14.122620
      11.841278      40.188293
      11.858886      53.080383
      11.876493      36.717957
      11.894101      15.301086
      11.911710       5.289978
      11.929317       1.032227
      11.946925       0.031372
      11.964533       0.838257
      11.982141       0.186707
      11.999748      -0.138123
      12.017357       0.626709
      12.034965       1.123657
      12.052572       0.914734
      12.070180       0.076294
      12.087788       0.384705
      12.105395       1.330750
      12.123004       1.876892
      12.140612       0.916199
      12.158219       1.318481
      12.175827       0.910217
      12.193435       1.212463
      12.211042       0.981140
      12.228651       0.961182
      12.246259       0.472778
      12.263866       0.527588
      12.281474       0.765015
      12.299082       1.591553
      12.316689       1.819092
      12.334298       2.943054
      12.351906       4.779907
      12.369514      11.035889
      12.387121      18.448792
      12.404729      14.761719
      12.422337       5.875000
      12.439945       1.833435
      12.457553       0.720215
      12.475161       1.375549
      12.492768       0.718506
      12.510376       0.931091
      12.527984       0.962585
      12.545592       1.160156
      12.563200       0.974365
      12.580808       1.044434
      12.598415       0.775818
      12.616023       1.134155
      12.633631       1.105835
      12.651239       1.023499
      12.668847       0.824219
      12.686455       1.168762
      12.704062       0.114502
      12.721670       0.784546
      12.739278       0.429688
      12.756886       0.853088
      12.774494       0.436462
      12.792102       0.950317
      12.809710       1.177124
      12.827317      -0.040833
      12.844925       0.086670
      12.862534       0.273010
      12.880141       2.500488
      12.897749       3.681641
      12.915357       3.279785
      12.932964       1.640869
      12.950572       0.658325
      12.968181       0.716125
      12.985788       1.228088
      13.003396       1.142578
      13.021004      -0.155884
      13.038611       0.326416
      13.056219       0.350952
      13.073828       1.374756
      13.091435       1.234070
      13.109043       1.589417
      13.126651      -0.006958
      13.144258       0.685608
      13.161866       0.887207
      13.179475       1.610168
      13.197083       5.057739
      13.214690      15.351990
      13.232298      20.826050
      13.249906       9.814819
      13.267513       2.344666
      13.285122       0.680481
      13.302730       0.072021
      13.320337      -0.717590
      13.337945       1.193237
      13.355553       5.639404
      13.373160       6.611145
      13.390769       4.478394
      13.408377       2.031250
      13.425984       1.208923
      13.443592       0.354919
      13.461200       0.554688
      13.478807       0.386658
      13.496416       0.377869
      13.514024      -0.154663
      13.531631      -0.311890
      13.549239      -0.540771
      13.566847       0.056824
      13.584455      -0.115601
      13.602063      -0.971680
      13.619671      -1.810059
      13.637279      -0.136841
      13.654886       0.870056
      13.672494       0.951050
      13.690102       0.793396
      13.707710       1.827332
      13.725318       5.794250
      13.742926      18.207031
      13.760533      25.918335
      13.778141      21.131592
      13.795749      12.057983
      13.813357       7.157654
      13.830965       4.479248
      13.848573       3.544006
      13.866180       3.481445
      13.883788       3.883179
      13.901396       3.625549
      13.919004       3.095764
      13.936612       2.607727
      13.954220       1.701233
      13.971828       1.493835
      13.989435       1.876709
      14.007043       1.704529
      14.024652       2.938843
      14.042259       2.451050
      14.059867       2.891846
      14.077475       2.140442
      14.095082       2.114197
      14.112690       1.303589
      14.130299       2.121216
      14.147906       2.144531
      14.165514       2.430176
      14.183122       1.669189
      14.200729       1.596680
      14.218337       1.239502
      14.235946       2.114563
      14.253553       1.409424
      14.271161       2.129150
      14.288769       1.804688
      14.306376       1.329956
      14.323984       0.619995
      14.341593       1.687439
      14.359200       1.539368
      14.376808       1.677002
      14.394416       3.560608
      14.412024       7.015808
      14.429631       6.400818
      14.447240       4.227905
      14.464848       2.028809
      14.482455       4.814636
      14.500063      10.425842
      14.517671       6.920898
      14.535278       2.774780
      14.552887       1.523621
      14.570495       0.632629
      14.588102       0.438721
      14.605710       0.523804
      14.623318       1.869873
      14.640926       1.218506
      14.658534       2.064941
      14.676142       2.687256
      14.693749       2.584412
      14.711357       4.127930
      14.728965      10.545471
      14.746573      24.463684
      14.764181      28.245789
      14.781789      15.249573
      14.799397       5.929993
      14.817004       2.665955
      14.834612       2.880432
      14.852221       1.663574
      14.869828       1.854980
      14.887436       2.759644
      14.905044       8.154358
      14.922651      15.379028
      14.940259      10.017517
      14.957868       4.844238
      14.975475       3.640991
      14.993083       2.729370
      15.010691       2.662109
      15.028298       1.619202
      15.045906       1.806152
      15.063515       2.289063
      15.081122       2.641785
      15.098730       2.186829
      15.116338       2.120361
      15.133945       1.613770
      15.151553       1.895325
      15.169162       1.506165
      15.186769       1.938293
      15.204377       1.575684
      15.221985       2.148376
      15.239593       1.114929
      15.257200       2.069092
      15.274809       4.307678
      15.292417       8.595215
      15.310024      11.347900
      15.327632      10.648987
      15.345240       6.791504
      15.362847       4.723511
      15.380456       2.921448
      15.398064       2.274109
      15.415671       2.236328
      15.433279       2.603943
      15.450887       1.818787
      15.468494       1.956726
      15.486103       2.387146
      15.503711       2.926575
      15.521318       2.426514
      15.538926       2.481201
      15.556534       2.812439
      15.574142       3.474731
      15.591750       3.302856
      15.609358       4.043030
      15.626966       3.418274
      15.644573       2.979858
      15.662181       1.885376
      15.679789       2.405212
      15.697397       3.279663
      15.715005       3.663757
      15.732613       2.646362
      15.750220       2.626953
      15.767828       1.883057
      15.785436       2.906311
      15.803044       2.664429
      15.820652       3.601807
      15.838260       3.396362
      15.855867       2.917236
      15.873475       2.065186
      15.891083       2.554565
      15.908691       2.081543
      15.926299       1.537109
      15.943907       0.649170
      15.961514       1.413086
      15.979122       2.394714
      15.996730       4.593079
      16.014338       7.358459
      16.031946       7.045105
      16.049553       3.688232
      16.067162       2.407043
      16.084770       1.208008
      16.102377       2.064026
      16.119986       2.560547
      16.137592       2.711243
      16.155201       1.914795
      16.172810       2.190491
      16.190416       2.443787
      16.208025       2.663940
      16.225632       1.968262
      16.243240       2.192627
      16.260847       2.164673
      16.278456       2.727783
      16.296064       2.124756
      16.313671       2.254517
      16.331280       1.528381
      16.348886       2.036804
      16.366495       1.671265
      16.384104       2.139771
      16.401711       1.642151
      16.419319       1.840942
      16.436926       1.207642
      16.454535       1.809875
      16.472141       2.024353
      16.489750       2.047852
      16.507359       1.327637
      16.524965       1.871338
      16.542574       2.088257
      16.560181       2.498474
      16.577789       2.068481
      16.595398       2.382568
      16.613005       1.279907
      16.630613       1.748169
      16.648220       3.529968
      16.665829       5.725769
      16.683435       4.102295
      16.701044       3.155273
      16.718653       2.205750
      16.736259       2.134399
      16.753868       1.416504
      16.771475       1.845886
      16.789083       1.525635
      16.806692       2.068481
      16.824299       1.527832
      16.841908       1.163269
      16.859514       2.590698
      16.877123       2.448914
      16.894730       2.369507
      16.912338       1.398499
      16.929947       0.661926
      16.947554       1.376892
      16.965162       1.092102
      16.982769       1.174133
      17.000378       2.033325
      17.017986       1.816040
      17.035593       3.248413
      17.053202       2.787231
      17.070808       1.964600
      17.088417       2.441772
      17.106024       2.273682
      17.123632       1.969360
      17.141241       1.585449
      17.158848       2.035522
      17.176456       1.569458
      17.194063       1.554077
      17.211672       1.661194
      17.229280       1.945251
      17.246887       1.900391
      17.264496       2.256958
      17.282103       2.580261
      17.299711       2.646545
      17.317318       2.843750
      17.334927       1.700989
      17.352535       0.519409
      17.370142       0.281860
      17.387751       0.312866
      17.405357       0.256714
      17.422966       0.189392
      17.440575       1.667297
      17.458181       1.654785
      17.475790       1.104126
      17.493397       1.294861
      17.511005       1.891052
      17.528612       2.849365
      17.546221       2.994629
      17.563829       2.304749
      17.581436       1.153259
      17.599045       1.970154
      17.616652       2.024414
      17.634260       2.030029
      17.651869       2.330078
      17.669476       1.684448
      17.687084       1.692932
      17.704691       1.931580
      17.722300       2.712036
      17.739906       2.282898
      17.757515       1.886902
      17.775124       1.505188
      17.792730       1.531250
      17.810339       1.500549
      17.827946       0.817017
      17.845554       1.087952
