




       5.801786      -0.901866
       5.819394      -0.200833
       5.837002      -0.163353
       5.854609      -0.562141
       5.872218      -0.872218
       5.889825      -0.070382
       5.907433      -0.456634
       5.925041      -0.903375
       5.942649      -1.416105
       5.960257      -0.629468
       5.977865      -0.463679
       5.995472      -0.238123
       6.013080      -1.163530
       6.030688      -0.802883
       6.048296      -1.118304
       6.065904      -0.384976
       6.083512      -1.020079
       6.101120       0.484428
       6.118727       0.963798
       6.136335       1.419647
       6.153943      -2.150542
       6.171551      -0.311611
       6.189159       1.136047
       6.206767       0.135297
       6.224374       0.136196
       6.241982       0.483322
       6.259590       0.606529
       6.277198       0.705293
       6.294806       0.414005
       6.312414       0.929790
       6.330021       1.008151
       6.347630       0.494605
       6.365237      -0.529127
       6.382845      -0.439000
       6.400453      -0.343832
       6.418061      -0.856465
       6.435668      -0.617907
       6.453277      -0.598438
       6.470884      -0.385347
       6.488492       0.055899
       6.506100      -1.031829
       6.523708      -0.721870
       6.541316      -0.555694
       6.558924       0.665854
       6.576531       0.541966
       6.594139      -1.509527
       6.611747       1.195992
       6.629355      -0.388255
       6.646963       0.706656
       6.664571       0.731607
       6.682178       0.449050
       6.699786      -0.240605
       6.717394      -1.453913
       6.735002      -1.281647
       6.752610      -0.546140
       6.770218      -0.635118
       6.787826      -0.045785
       6.805433      -0.186185
       6.823041       0.892982
       6.840649       0.313716
       6.858257      -0.679283
       6.875865      -1.249938
       6.893473       0.653653
       6.911080       0.272906
       6.928689       0.122615
       6.946296       0.494638
       6.963904       0.117265
       6.981512       0.042404
       6.999120      -0.686452
       7.016727      -0.239955
       7.034336      -0.752170
       7.051943      -1.052896
       7.069551       0.103114
       7.087159       0.666423
       7.104767      -1.752155
       7.122375      -2.760441
       7.139983       1.034718
       7.157590       1.306648
       7.175198       2.287571
       7.192806       1.503992
       7.210414      -0.488239
       7.228022      -0.447941
       7.245630       0.115578
       7.263237       0.313266
       7.280845       0.596911
       7.298453      -0.208538
       7.316061      -1.215100
       7.333669      -1.071632
       7.351277      -0.365057
       7.368885      -0.676126
       7.386492      -2.028710
       7.404100      -1.473366
       7.421708      -1.461627
       7.439316      -0.558192
       7.456924      -0.780398
       7.474532      -1.227167
       7.492139      -1.473738
       7.509748      -1.564248
       7.527355      -1.586080
       7.544963      -0.271314
       7.562571      -0.409456
       7.580179      -0.137240
       7.597786      -1.087377
       7.615395      -1.087964
       7.633002      -1.455888
       7.650610      -0.436415
       7.668218      -0.714735
       7.685826      -0.520844
       7.703434      -0.737781
       7.721042      -1.768190
       7.738649      -2.296636
       7.756257      -3.208775
       7.773865      -2.520072
       7.791473      -1.953555
       7.809081      -1.362932
       7.826689      -0.552191
       7.844296       0.134256
       7.861904       0.341341
       7.879512       1.037754
       7.897120       1.584516
       7.914728       1.860480
       7.932336      -0.501626
       7.949944      -4.760159
       7.967551      -6.512815
       7.985159       1.006254
       8.002767       7.290209
       8.020375       3.349866
       8.037983       0.657204
       8.055591      -0.902382
       8.073198      -0.957054
       8.090806       0.087272
       8.108414       1.311397
       8.126022       1.118175
       8.143630       0.514085
       8.161238       0.454111
       8.178845       0.464184
       8.196453      -0.079589
       8.214061       0.701254
       8.231669       0.947304
       8.249277       1.772744
       8.266885       1.583752
       8.284492       1.011603
       8.302100      -0.366842
       8.319708       0.198827
       8.337317       0.264450
       8.354924      -0.757343
       8.372532      -0.668995
       8.390140      -0.699239
       8.407747       0.166921
       8.425355       0.243303
       8.442964      -0.726783
       8.460571      -0.904816
       8.478179      -0.683674
       8.495787      -0.367660
       8.513394       0.500892
       8.531002       0.523820
       8.548611      -0.455773
       8.566218      -1.218084
       8.583826      -2.660531
       8.601434      -2.385493
       8.619041      -1.424732
       8.636649      -0.552902
       8.654258       0.811373
       8.671865      -0.324859
       8.689473       0.864413
       8.707081      14.553223
       8.724689       1.730789
       8.742297      -5.497345
       8.759905       8.659592
       8.777513     -13.816696
       8.795120      -8.178785
       8.812728       1.358557
       8.830336       2.952831
       8.847944       1.404796
       8.865552       0.329288
       8.883160      -0.835881
       8.900767       0.149331
       8.918375       1.575841
       8.935983       1.465370
       8.953591       0.551115
       8.971199       2.608073
       8.988807       2.736238
       9.006414      -1.655708
       9.024022      -0.498711
       9.041630       2.191170
       9.059238      -2.293619
       9.076846      -1.475152
       9.094454      -1.745464
       9.112062      -2.233504
       9.129669      -0.909650
       9.147277      -0.423584
       9.164886      -0.657000
       9.182493      -0.574849
       9.200101       1.562259
       9.217709       2.328515
       9.235316       2.070460
       9.252924       0.930745
       9.270533       0.905007
       9.288140       0.717710
       9.305748      -1.418696
       9.323356      -0.847688
       9.340963       0.037784
       9.358571       1.156885
       9.376180       1.643193
       9.393787       0.416994
       9.411395      -0.502711
       9.429003      -0.386384
       9.446610      -0.031211
       9.464218      -0.639575
       9.481827       0.001800
       9.499434      -0.568352
       9.517042      -0.103411
       9.534650       0.671320
       9.552258      -0.122398
       9.569865      -0.368513
       9.587474      -0.300890
       9.605082      -0.415541
       9.622689       0.779463
       9.640297       1.928002
       9.657905       2.073588
       9.675512       0.509404
       9.693121       0.458519
       9.710729       0.228646
       9.728336      -0.184963
       9.745944      -0.252688
       9.763552      -0.399939
       9.781159      -0.735543
       9.798768      -0.816748
       9.816376      -0.573823
       9.833983       0.247544
       9.851591       0.211890
       9.869199       0.064449
       9.886806       0.200068
       9.904415       0.394787
       9.922023      -0.017037
       9.939631      -0.771887
       9.957238      -1.136425
       9.974846      -0.905075
       9.992454       0.074908
      10.010062       0.090621
      10.027670       0.084824
      10.045278      -0.176530
      10.062885      -1.170195
      10.080493       0.026646
      10.098101       0.002621
      10.115709       0.006527
      10.133317       0.275749
      10.150925       1.030542
      10.168532       0.998617
      10.186140       0.927006
      10.203748      -0.719085
      10.221356      -0.014425
      10.238964      -0.271074
      10.256572      -0.583374
      10.274179      -0.861715
      10.291787      -0.942282
      10.309395      -0.493174
      10.327003       0.467605
      10.344611       3.065897
      10.362219       5.042572
      10.379827       0.217022
      10.397434      -1.491455
      10.415042       3.504501
      10.432651      -6.334137
      10.450258       9.435181
      10.467866      -9.973480
      10.485474      -0.525624
      10.503081       1.795894
      10.520689       1.645365
      10.538298       1.704881
      10.555905       0.936741
      10.573513       1.441677
      10.591121       0.256843
      10.608728       0.589264
      10.626336       0.137950
      10.643945       0.327204
      10.661552      -0.581674
      10.679160      -0.513823
      10.696768      -1.433459
      10.714375      -0.513758
      10.731983      -0.758435
      10.749592       0.582969
      10.767200       0.540439
      10.784807       1.103510
      10.802415       0.143663
      10.820023       0.643520
      10.837630      -0.159097
      10.855239      -0.863084
      10.872847      -0.724048
      10.890454       0.416046
      10.908062       0.343963
      10.925670       0.789652
      10.943277      -0.223752
      10.960886       0.741341
      10.978494       0.981079
      10.996101       1.546490
      11.013709      -0.216756
      11.031317       0.302010
      11.048924       0.109823
      11.066533       0.603306
      11.084141       0.193925
      11.101748       0.401637
      11.119356       0.164719
      11.136964      -0.303035
      11.154572      -0.390837
      11.172180       0.566098
      11.189788       0.026074
      11.207396       0.302234
      11.225003      -0.194005
      11.242611       0.311089
      11.260219       0.625262
      11.277827       0.067181
      11.295435      -0.316081
      11.313043      -0.195015
      11.330650      -0.556612
      11.348258      -1.102229
      11.365866      -0.763211
      11.383474      -0.427432
      11.401082       0.727084
      11.418690       0.654678
      11.436297       0.435591
      11.453905      -0.371281
      11.471513      -0.420075
      11.489121       1.117736
      11.506729       0.436544
      11.524337      -0.641416
      11.541945      -2.198357
      11.559552      -0.631845
      11.577160       1.347857
      11.594769       2.823896
      11.612376       2.782736
      11.629984      -1.182104
      11.647592      -4.615356
      11.665199      -0.741115
      11.682807       1.007303
      11.700416       0.680984
      11.718023       1.018684
      11.735631       1.421909
      11.753239      -0.090183
      11.770846      -0.704481
      11.788454      -1.379795
      11.806063      -2.693387
      11.823670      -7.826771
      11.841278      -4.914982
      11.858886       2.838303
      11.876493       7.739544
      11.894101       4.824323
      11.911710       1.997774
      11.929317      -0.427098
      11.946925      -0.863034
      11.964533       0.229954
      11.982141      -0.245526
      11.999748      -0.455712
      12.017357       0.385967
      12.034965       0.935079
      12.052572       0.761306
      12.070180      -0.054383
      12.087788       0.267168
      12.105395       1.218356
      12.123004       1.762426
      12.140612       0.792551
      12.158219       1.178000
      12.175827       0.743964
      12.193435       1.009222
      12.211042       0.725937
      12.228651       0.632888
      12.246259       0.039964
      12.263866      -0.059184
      12.281474      -0.058721
      12.299082       0.376048
      12.316689      -0.143792
      12.334298      -0.746742
      12.351906      -2.948264
      12.369514      -3.561402
      12.387121       1.603773
      12.404729       4.499928
      12.422337       0.934152
      12.439945      -0.643728
      12.457553      -0.731300
      12.475161       0.419978
      12.492768       0.049464
      12.510376       0.443846
      12.527984       0.596831
      12.545592       0.878475
      12.563200       0.752147
      12.580808       0.864616
      12.598415       0.625923
      12.616023       1.004518
      12.633631       0.988460
      12.651239       0.911250
      12.668847       0.710164
      12.686455       1.045545
      12.704062      -0.026379
      12.721670       0.615414
      12.739278       0.218289
      12.756886       0.580070
      12.774494       0.074498
      12.792102       0.460292
      12.809710       0.500530
      12.827317      -0.999840
      12.844925      -1.318213
      12.862534      -1.793913
      12.880141      -0.225142
      12.897749       0.929340
      12.915357       1.167938
      12.932964       0.205609
      12.950572      -0.315216
      12.968181       0.034859
      12.985788       0.738636
      13.003396       0.783016
      13.021004      -0.428150
      13.038611       0.109708
      13.056219       0.164200
      13.073828       1.194522
      13.091435       1.034808
      13.109043       1.337745
      13.126651      -0.361951
      13.144258       0.139273
      13.161866      -0.022549
      13.179475      -0.076134
      13.197083       1.260215
      13.214690       5.566965
      13.232298       1.597031
      13.249906      -4.625199
      13.267513      -3.073668
      13.285122      -0.891715
      13.302730      -0.361305
      13.320337      -1.276953
      13.337945      -0.580918
      13.355553       1.446898
      13.373160       0.380957
      13.390769      -1.019837
      13.408377      -0.720113
      13.425984       0.679148
      13.443592       0.983592
      13.461200       1.654430
      13.478807       1.512357
      13.496416       1.315085
      13.514024       0.545730
      13.531631       0.170961
      13.549239      -0.246572
      13.566847       0.181387
      13.584455      -0.154914
      13.602063      -1.182644
      13.619671      -2.215610
      13.637279      -0.780166
      13.654886      -0.087304
      13.672494      -0.465781
      13.690102      -1.398166
      13.707710      -1.841381
      13.725318      -0.710845
      13.742926       6.888429
      13.760533       8.289946
      13.778141      -0.493828
      13.795749      -6.658003
      13.813357      -5.283108
      13.830965      -2.820060
      13.848573      -0.635929
      13.866180       0.928589
      13.883788       2.152503
      13.901396       2.347976
      13.919004       2.099884
      13.936612       1.800950
      13.954220       1.025576
      13.971828       0.909714
      13.989435       1.355606
      14.007043       1.224968
      14.024652       2.483876
      14.042259       2.006635
      14.059867       2.445732
      14.077475       1.681354
      14.095082       1.631188
      14.112690       0.785491
      14.130299       1.556116
      14.147906       1.519250
      14.165514       1.729702
      14.183122       0.876058
      14.200729       0.690282
      14.218337       0.195323
      14.235946       0.903355
      14.253553      -0.003582
      14.271161       0.473331
      14.288769      -0.141539
      14.306376      -0.960338
      14.323984      -2.071843
      14.341593      -1.461846
      14.359200      -2.111069
      14.376808      -2.489193
      14.394416      -1.084370
      14.412024       2.000178
      14.429631       1.196297
      14.447240      -0.937126
      14.464848      -2.872209
      14.482455       0.349854
      14.500063       6.494256
      14.517671       3.548862
      14.535278      -0.063633
      14.552887      -0.841531
      14.570495      -1.343214
      14.588102      -1.250840
      14.605710      -0.999596
      14.623318       0.380178
      14.640926      -0.370543
      14.658534       0.261935
      14.676142       0.591766
      14.693749       0.110587
      14.711357       0.368101
      14.728965       0.043739
      14.746573      -0.001982
      14.764181       0.213009
      14.781789      -0.218752
      14.799397       0.390374
      14.817004      -0.066917
      14.834612       0.688832
      14.852221      -0.450797
      14.869828      -0.622402
      14.887436      -0.881731
      14.905044       1.996370
      14.922651       5.347536
      14.940259      -1.836563
      14.957868      -3.864640
      14.975475      -1.452798
      14.993083      -0.222916
      15.010691       0.776996
      15.028298       0.245443
      15.045906       0.679304
      15.063515       1.270721
      15.081122       1.641927
      15.098730       1.127525
      15.116338       0.915035
      15.133945       0.165067
      15.151553       0.134388
      15.169162      -0.520813
      15.186769      -0.157672
      15.204377      -0.381243
      15.221985       0.380186
      15.239593      -0.607318
      15.257200      -0.147388
      15.274809      -0.272790
      15.292417       0.051096
      15.310024       0.052583
      15.327632       0.139294
      15.345240      -0.510634
      15.362847       0.410983
      15.380456       0.294920
      15.398064       0.289207
      15.415671       0.385768
      15.433279       0.689286
      15.450887      -0.232548
      15.468494      -0.230601
      15.486103       0.129467
      15.503711       0.698467
      15.521318       0.272476
      15.538926       0.251809
      15.556534       0.092236
      15.574142      -0.178909
      15.591750      -1.135970
      15.609358      -0.255095
      15.626966       0.013869
      15.644573       0.378038
      15.662181      -0.402350
      15.679789       0.087121
      15.697397       0.851181
      15.715005       1.197585
      15.732613       0.239014
      15.750220       0.330999
      15.767828      -0.304255
      15.785436       0.785958
      15.803044       0.552674
      15.820652       1.443490
      15.838260       1.157374
      15.855867       0.601500
      15.873475      -0.273323
      15.891083       0.292959
      15.908691       0.007330
      15.926299      -0.302252
      15.943907      -1.128935
      15.961514      -1.117419
      15.979122      -2.294860
      15.996730      -1.454100
      16.014338       1.316041
      16.031946       2.300189
      16.049553       1.137257
      16.067162       0.652641
      16.084770      -0.592672
      16.102377       0.031387
      16.119986       0.342729
      16.137592       0.425699
      16.155201      -0.328724
      16.172810       0.044658
      16.190416       0.375771
      16.208025       0.582607
      16.225632      -0.235810
      16.243240      -0.144516
      16.260847      -0.146395
      16.278456       0.626114
      16.296064       0.261265
      16.313671       0.532381
      16.331280      -0.177426
      16.348886       0.261520
      16.366495      -0.221946
      16.384104      -0.023131
      16.401711      -0.727829
      16.419319      -0.364638
      16.436926      -0.661186
      16.454535       0.138299
      16.472141       0.389072
      16.489750       0.386293
      16.507359      -0.356323
      16.524965       0.189734
      16.542574       0.434832
      16.560181       0.892233
      16.577789       0.506074
      16.595398       0.808796
      16.613005      -0.441935
      16.630613      -0.332527
      16.648220       0.901091
      16.665829       2.556170
      16.683435       0.671139
      16.701044      -0.203030
      16.718653      -0.970927
      16.736259      -0.977726
      16.753868      -1.784586
      16.771475      -1.493135
      16.789083      -1.869944
      16.806692      -1.220995
      16.824299      -1.483800
      16.841908      -1.448337
      16.859514       0.423388
      16.877123       0.694094
      16.894730       0.939318
      16.912338       0.175155
      16.929947      -0.479181
      16.947554       0.203832
      16.965162      -0.205067
      16.982769      -0.309205
      17.000378       0.338411
      17.017986      -0.072472
      17.035593       1.234821
      17.053202       0.774399
      17.070808       0.139822
      17.088417       1.051735
      17.106024       1.611248
      17.123632       2.344986
      17.141241       3.278412
      17.158848       5.224737
      17.176456       6.248707
      17.194063       7.442905
      17.211672       8.138075
      17.229280       8.038685
      17.246887       6.388111
      17.264496       3.914120
      17.282103       0.577263
      17.299711      -3.011959
      17.317318      -5.381504
      17.334927      -7.124603
      17.352535      -6.761787
      17.370142      -3.999756
      17.387751      -0.752392
      17.405357       1.410831
      17.422966       1.877726
      17.440575       2.297880
      17.458181       0.451164
      17.475790      -1.621782
      17.493397      -1.442192
      17.511005      -2.640141
      17.528612      -6.712039
      17.546221       5.296759
      17.563829       1.109581
      17.581436       2.860161
      17.599045       1.103960
      17.616652      -0.543909
      17.634260      -1.286899
      17.651869      -0.419621
      17.669476       0.050169
      17.687084       0.741151
      17.704691       0.801711
      17.722300       0.710590
      17.739906      -0.785474
      17.757515      -1.894692
      17.775124      -2.221196
      17.792730      -1.168486
      17.810339       0.796826
      17.827946       2.921887
      17.845554       6.569010
